wavelength: 632.8 R: 400 r0: 10 LinSpaced num: 100 100
    555.489     1390.58     163.871     31.8159     22.2221     504.472     1571.22     104.973     17.6135     113.572      401.48     1456.74     161.686     16.0776     175.326     648.155     232.367     225.757     27.4694     56.6928     207.371     3668.73     6.71853  0.00176554     21.2258     4.93211     4505.25      673.12     10.2431     9.24268     32.3764      1983.6     320.004     11.6264     13.6021     167.788     1584.38     1280.21     140.457      109.61     174.051     22.6685     1002.89     437.838     252.793     44.7709     136.479     1523.74     517.341         110     110.216     517.399      1523.1     136.723     44.8887     252.654     437.007     1000.64     22.7863     174.264      109.27      139.42     1281.82     1584.81     168.221     13.3511     11.5427      321.38     1984.62     32.2119     9.25795     10.0264     671.485     4501.76     4.89698     21.1182  0.00327646     6.84175     3669.43     207.999     56.8381     27.7595     224.721     232.864     649.092     175.416     16.2866     160.968     1459.81     400.321     113.623     17.4454      103.94     1571.28     504.537     22.4892     32.1892      162.71     1387.94     558.712
    1390.58     1078.19     109.978  0.00220565     2.03285     1215.81     2051.91      125.55     10.6098     51.4498     26.6729     1917.27     312.157   0.0569932     29.3037     180.057     4721.28      6.1506     9.35796     19.5108      469.66      521.11     387.503     1.62005     67.1941     74.7375     1.46995     805.962      60.247     16.4855     74.7215      957.67     1231.05     4.84163     15.2105     15.7554     236.523     889.096     118.137     3.11947     12.0329     576.804     1871.26     350.216     61.1355     76.1684     66.3548     3493.68     376.922     282.094     283.241     377.424      3497.9     65.7655      76.284     61.2466     350.058     1873.83     577.778     12.0381     3.14951      118.24     888.235     236.231     15.7846     15.1532     4.75943     1230.37     955.357     75.2974     16.4647     60.2223     808.294     1.51287     74.9596     67.6764     1.65899      387.45     522.596     470.755     19.6766     9.46402     5.92285     4718.93     180.444     29.2335   0.0538362      311.91     1916.95     26.6709     51.1255     10.5609     126.355      2051.4     1216.23     2.05813 6.49866e-06     109.293     1079.56     1388.01
    163.871     109.978     182.167     68.1158     186.619      157.65     104.356     22.6898     38.2539      14.753     209.643     5.99676      318.03     17.9164      2.7109     63.1129     295.381      13.207     14.6307     77.2549     50.0596     156.539     97.6104     10.6442     37.1996     105.957     17.6362     21.8236     154.941     22.7311     65.0675     15.8614     16.5725     46.5868   0.0927353      27.304    0.508875     25.7476     48.0427     78.2289      24.345     146.547     44.8405     16.8206     76.1994     18.8577     121.887     159.971     54.6895 8.63369e-06 0.000221411     54.7372     159.833     121.643     19.0402     76.4527     16.6827     44.8212     146.305     24.3848     77.8859     47.8484      25.779    0.489067     27.4104    0.074599     46.6167      16.798     15.9115     65.2956     22.8089     154.916      21.583     17.7142     105.652     37.5754     10.6017     97.7588     155.865     50.5729     77.0996     14.7056      12.894     296.813     62.9375      2.6576     18.0819     317.296     5.91009     209.555     14.6756     38.4766     22.8749     104.566     158.111     186.447     68.1018      182.83     110.021     163.655
    31.8159  0.00220533     68.1157     3.78033     60.7728     44.5586     22.9439     155.613     0.26727    0.287981     10.8982     35.5205     3.09979     29.4243     14.7589     14.6032     100.796     91.9763   0.0638177    0.048982     140.966     87.4332     129.924   0.0171063     6.93628     246.247      10.658      41.394    0.801265     1.46949     32.2401     41.4476   0.0400106     10.5098     29.5659     18.5986     2.16914     24.1164     62.3326     40.3665     3.61479      4.3318     23.2433     67.2795     14.3493     1.04071     3.28661      86.353     16.2834     5.22501     5.22866     16.2341     86.4833     3.28402      1.0456     14.3342     67.4302     23.3002     4.33932     3.58214      40.474     62.3963     24.1806     2.15877     18.4568     29.6925     10.4737   0.0328338     41.5903     32.3215     1.49142    0.817317     41.3424     10.7088     246.305     6.97844   0.0192318     129.312     88.1242     141.178   0.0441384   0.0601339     92.3172     100.844     14.5657     14.8355     29.6405     3.01348     35.5899     10.9371     0.29406    0.308515     155.861     22.9029     44.7403     61.0554     4.08091     68.0322  0.00390352     32.1891
    22.2219     2.03286     186.619     60.7731     1.64909     118.367      16.751     185.139     2.72737     144.642     78.4652     14.7588     7.94959     3.00593     41.5914     165.512     72.3975     5.80535     2.67707     8.18465     38.4188      285.01     51.7761      39.248     36.5672     26.3017     30.6994     11.3998     110.924      84.495     249.402     570.835   0.0615217     1.59243     1.59897     13.7509      244.79     39.2252     2.57452     5.00489     120.037     108.357      58.158     1.14052     1.60938     14.5517     8.70254     56.2083     105.368   0.0719566   0.0720444     105.082     56.3477     8.68282     14.7512     1.64658     1.10611     58.1578     108.259     119.425     5.03154     2.53004     39.2213     245.008      13.696     1.55232     1.59411   0.0624221     570.785     249.351     84.6302     110.996     11.4304      30.619     26.1047     36.8748     38.9647     51.4955       285.2     38.2468      8.1549     2.68603     5.77106     72.2872     165.716     41.7223     2.99241      8.0977     14.9029      78.422     144.712     2.80836     184.872     16.6508     118.424     1.67845     61.0552     186.529     2.05689     22.4892
    504.475     1215.81     157.649     44.5586     118.367      214.79     317.548     225.576     16.4278      212.27     530.318     1182.47     14.7104     162.317     467.508     79.2062     204.551     5.33294      90.958     188.432     169.267     2072.86     334.414     1.10638    0.336083     103.993     1360.25     320.407     9.93485      18.936     59.4677     806.888     82.5014     138.626      41.081     119.591     1198.46     529.804     166.401     143.103     115.565     328.975     3.79387      392.32     193.629      233.14      404.15     631.509     81.3591      118.46     118.627     81.5682     630.827     404.149     232.522     193.494     392.167     3.86649     328.429     114.896     143.169     165.933     529.638     1196.92     119.643     40.9683     138.458     81.8879     806.315     59.5292     19.0276     9.84855     320.122     1360.83     104.557    0.346882     1.17724     335.115     2073.21      169.86     187.841     91.3343     5.20997     204.447     78.7628     466.733      162.64     14.8599     1182.05     529.209     211.829     16.3177      225.09     318.355     215.705     118.424     44.7401     157.164     1215.43     504.539
    1571.21     2051.91     104.357     22.9439     16.7511      317.55     4977.37      214.53      1.0312     36.8364     776.848     9366.94     158.735     30.4231     122.814      623.78     15587.6      71.864       101.7     7.21992      407.38     184.321   0.0579651     9.38636    0.257291     330.125     9356.98     297.113    0.724846     16.6777     193.018     4322.79     2055.31      122.04     38.2114     91.8362     479.981     3.92013     257.677      23.356     29.2855      161.86     48.2691     249.196     15.3838    0.119781      809.54     7456.83     449.796     1.61459      1.5981     449.808     7461.72     808.269    0.106021     15.3274     249.474     49.1204     161.366     29.1342     23.3169     257.844     4.14168       479.9     91.2458     38.3724     121.728     2055.23     4322.19     193.076     16.5464    0.786246     297.108     9358.24     331.158    0.278075     9.30998    0.102988     181.829     406.754     7.18791     101.246      72.158     15587.4     625.357     122.518      30.576      158.61     9367.81     775.199     36.9774     1.04755     215.217     4966.44     318.353     16.6508     22.9029     105.219     2058.83     1571.27
    104.972     125.551     22.6898     155.613     185.138     225.577     214.531     235.232     5.54512     10.8596      5.0192     134.706     58.3019     25.2968     80.3425     71.4007     407.967     115.305     15.6676     50.4833     56.8078     124.264     29.2955     13.2302     1.10291     336.668     111.662     33.4294     123.958     77.5374     8.07446     210.422     50.2148     57.0309     19.4024     184.085     212.245     79.3876    0.238307     6.86959     54.8172     162.008    0.819715       32.97     2.03179     4.95897     0.12941     337.256     4.18481     94.8224      94.869     4.16765     337.226    0.139529     4.89258     2.03147     32.8466    0.846891     161.761     55.3877     6.89672     0.25296     79.9657     212.135     184.138     19.4288     56.8541     50.4713     210.599      7.9734     77.5049      124.42      33.381     111.741     337.421     1.02075     13.2352     29.5534     123.669     56.6862     50.3881     15.9546     115.412     408.207     71.9172     80.7659     25.5048      58.049     134.623     4.83407     10.8098     5.63858     236.133     215.381     225.331     184.602      155.93     22.5039     125.567     104.793
    17.6136     10.6098     38.2539    0.267272     2.72737     16.4278     1.03119     5.54511     64.3504    0.702139     71.5206     130.274     28.9251     3.49586     148.859     22.3067     203.497     16.8466     85.9456     39.3111    0.117092     24.5016     3.39201     54.0807     64.9346     28.2223     1.16063     76.1466     0.55657     1.45825     4.11314       74.22     1.66378     14.2734     4.56095     217.425     82.9966     2.99183     25.0424    0.448132     80.0899      11.393     4.79762     3.36361     17.9037     185.827     25.6957     73.7868     45.7258      26.461     26.5349     45.8266     73.5509     25.3492     185.124     17.9406     3.38364     4.84091     11.4798     80.1389    0.437554     25.0424     2.93612     82.8039     217.312     4.49595     14.2023     1.65054     74.2967     4.13823      1.4327    0.529261     76.1948     1.15521     28.3443     64.7445     53.9429     3.36218     24.4297    0.122386      39.015     85.5151     16.8336     202.873     22.0505     148.806     3.54951     28.7495     129.739     70.9332    0.714197     64.3057     5.46294     1.04852     16.3422     2.69167    0.278351      38.571        10.7     17.3265
    113.571     51.4497     14.7529     0.28798     144.642     212.271     36.8362     10.8596    0.702146     61.6226     148.536     128.442     17.8113     39.9548     0.61067    0.126776     143.669     57.1973     34.7164     97.0915      134.34     49.8883     2.40549     50.4642    0.207863    0.057549     77.7133     44.0306     36.0662     5.41993     15.5777     141.808     3.98619     67.9033     77.7388     56.1024     157.489     21.3889     26.8484     73.3678     16.2591     121.752   0.0977075     51.7638     236.642    0.435739      10.457     287.785     93.0317     45.3968     45.2475     93.0936     288.687      10.434     0.44159     236.843      51.749   0.0922575     121.811     16.2843     73.0474     26.7457     21.4305     157.478     55.9745     77.7395     67.7642      4.0171     141.575     15.5845     5.32274     36.1406     43.9229     77.7238   0.0549699    0.208016     50.5463     2.38327     49.8275     134.268     96.6554     34.6459     57.3383     142.782    0.129784    0.618462     40.0716      17.667     128.342     148.273     61.8745    0.727888     10.9314     37.3285     212.433      144.62     0.30201     14.7503     51.3567     113.482
     401.48      26.673     209.642     10.8981     78.4649     530.316     776.849      5.0192     71.5202     148.536     1047.46     616.651     137.891     36.2176     104.087     92.9627     261.624     75.4648    0.155496      122.09     5.18668     1107.76     904.882     5.80425     13.1479     52.1998     234.445     456.195     24.3082     4.67931     45.5177      519.37     471.037     426.508     22.7655     6.52324    0.410232     71.9145     412.936     101.839     36.6921     51.8367     306.748    0.921088     29.2045     39.5086     37.8162     621.855     311.576      12.972     13.1225     311.704      621.43     38.0474     39.4352     29.3296    0.933303     307.207     51.6102      36.454     101.762     413.151     72.1139    0.420506     6.36173     22.4937     426.945     471.947     519.769     45.5301      4.7592     24.3587     455.154     234.618     52.0586     13.1459     5.91277     905.878      1107.4     5.11363     121.491    0.199672     75.5618     261.377     92.4034     103.916     36.6088     136.599      617.62     1050.56     148.631      71.614     5.11301     775.817     530.123     78.4392     10.9181     210.042     25.9765       402.3
    1456.74     1917.28     5.99675     35.5208     14.7589     1182.48     9366.94     134.706     130.273     128.443     616.649        2811     60.9233     48.5829     129.651     451.268     80639.5     33.8605     69.8785     104.658     365.085     16599.1    0.129062     45.9667     129.474     413.217     13029.7   0.0138439     27.0363     14.0675     159.539     45.0683     141.392     177.248     33.9701     286.105     135.182     3545.68     87.5933     134.196     206.725     495.474       18117     154.336     245.287     14.6394     270.241     23879.2     347.906      143.07     144.577     348.203     23903.2     269.996     14.6698     244.898     154.664     18149.6      494.65     205.748     134.244     87.7965     3539.86     134.078     285.965     33.9349     177.475      140.83     45.9752     158.599     14.3008     27.2558  0.00337744     13036.4     411.894     130.457      45.829   0.0772003     16647.4     364.198     105.047     70.0686     34.3123     80668.1      450.51     129.589     48.9626     60.7602     2796.25     616.372     129.111     130.172     135.344     9361.48     1182.55     14.7661     35.4606     5.99903      1912.8     1456.43
    161.686     312.157     318.028      3.0998     7.94959     14.7104     158.734     58.3019     28.9253     17.8115     137.891     60.9228    0.527364     16.8843    0.487635     125.974     501.426     4.82708     3.30714    0.395641     36.1147     474.989     129.656      15.544    0.963884     3.00489     216.941     65.6798    0.161873     30.5457      652.37     186.235     4.19114     61.9875     23.5385     91.5331     778.067     8.71003     11.9837      6.9002   0.0193346      74.751    0.162164     128.039     5.94977     4.07168     201.082     307.008     290.766     16.1334     16.1499     290.785     306.686      200.92     4.17634     6.00057      128.42    0.148372     74.5375   0.0263297     6.96498     12.1042     8.77112      777.24     91.6511     23.7513     61.9714     4.05717     186.527     652.584     30.2888    0.158844     65.8899     216.122     2.90214    0.948466     15.5723     129.599     472.846     36.4325    0.383767     3.29777     4.70948     501.834     126.459    0.485222     16.9316    0.692018     60.7622     137.783        17.6     29.0071     58.3252     157.884     14.7496     8.11598     3.04619     318.161     312.427     161.352
    16.0776   0.0569953     17.9163     29.4244     3.00593     162.316     30.4231      25.297     3.49587     39.9546     36.2174      48.583     16.8844     212.807     20.9779     9.69351     241.295     38.5975     20.0537       292.7     82.2753     61.2984     28.3083     151.907     22.1975      75.121     19.5173     5.54508    0.502548     77.8976      4.1207     110.505     23.5073     37.2023    0.541265     9.76839     87.4934     18.4348     27.1806      21.872     18.7287     5.32255     2.54002     26.6584     18.3154   0.0746865  0.00114497     127.609     2.06269     133.608     134.171     2.06062     127.744  0.00226019   0.0651318     18.2951      26.426     2.55384     5.34554     18.8118     21.8047      27.114     18.4557     87.4462     9.64551    0.529781     37.1029      23.367     110.711     4.14413     77.8912    0.544925     5.56239     19.7532     75.2107     22.0712     152.053     28.1357     61.4365      81.979     293.625     19.9294      38.779     240.234     9.74623     21.0953     213.047     17.0307     48.6279     36.1676     39.7553     3.44481     25.4572     30.9552     162.417     3.03649     29.5126     17.9653   0.0478826     16.1599
    175.326     29.3035     2.71088     14.7589     41.5914     467.509     122.813     80.3425     148.859    0.610667     104.088     129.651    0.487636     20.9779     210.762     15.8188     180.173     5.07867     140.538    0.424005     27.7399     43.5823     22.8587     14.4833     8.80343     7.15694     103.465     6.38048     63.6736     133.833     79.3704     84.0842     37.7264     48.8713     108.029     1.58418     83.5946     1.15136   0.0183839     12.0147     9.29782     8.90812      4.7139     130.979    0.227004     85.4921   0.0395652     240.831   0.0704636     113.068     113.134   0.0619708     241.126   0.0371595     85.8442    0.235162     131.197     4.65254     8.93141     9.12189     12.1548   0.0283514     1.14414     83.5125     1.62413      108.13     48.9774     37.6217     84.6777     79.2071     133.764     63.6089     6.35631     103.926     6.97005      8.7391     14.6246     22.5861     43.7534     27.5161    0.405051     141.315     5.03622     179.607     15.7507     209.944     20.9788     0.50585     129.262     103.526      0.6038     148.422     80.5781     123.375      466.57      41.679      14.799     2.70659     29.4462      175.85
    648.156     180.057     63.1129     14.6032     165.511     79.2066      623.78     71.4009     22.3065    0.126777     92.9628      451.27     125.974     9.69347     15.8189     598.697      435.01     95.5482     17.1015     24.4058      267.69     451.243     318.932     51.9782     13.0846     145.302     4.10686     318.188     188.918     4.27328     23.3943     31.6007     4.09527     42.1661     29.2717     60.2556     251.791     529.331     20.9478     4.61397     131.278      152.01     235.818     4.85447     5.68705     66.1002     153.315     397.706     324.356     2.04954     2.10251     325.111     398.236      153.44     66.0567      5.6821     4.85907     235.933     151.943       131.8     4.55267     20.8217     529.882     251.864     59.8372     29.3707     42.1559     4.03079      31.913     23.5377     4.29415     189.378     318.122     4.11636     146.093     13.0815     52.0186     318.874       453.2     268.493     24.4191     16.9864      96.178     434.771     595.758     15.7091     9.79582       125.5     451.976     92.8098    0.140999     22.2998      71.386     623.295     79.1329     165.428     14.6373     62.4122     180.941     647.686
    232.373     4721.25      295.38     100.797     72.3973     204.553     15587.6     407.965     203.495     143.669     261.623     80639.5      501.42     241.295     180.174     435.012 2.08921e+06     757.611     234.378     211.818     487.964      138930     1317.79     180.172     273.602     377.931     10871.5     2515.12     223.061     240.014     211.693     4080.49     4602.06     500.014     223.788     226.803     2195.83     10857.4     712.635     221.165     210.529     1399.77     46584.2     866.841     211.948     120.546     975.233 1.00474e+06     946.564     156.001     156.537     946.511   1.005e+06     974.895     120.291     211.966     868.056     46569.5     1401.03     210.292     222.144      712.95     10854.9      2200.8     227.157     224.611     499.977     4600.83      4085.7     211.999     239.651     223.546     2514.43     10883.4     378.748     272.352     180.037     1318.87      139442     487.138     211.521     232.348     761.037 2.09952e+06     436.314     180.471      245.62     499.384     80719.1     261.725     145.052     204.729     411.542     15588.8     204.778     72.2692     100.991     296.443        4741      232.12
    225.756     6.15058      13.207     91.9755      5.8054     5.33294     71.8642     115.306     16.8465     57.1971     75.4647     33.8603      4.8271     38.5975     5.07869      95.549     757.611     34.0351     59.5094     13.5216    0.529408     677.233     297.093     20.6557     116.285     240.148       405.2     50.1041     66.5676     316.935     4.04497     588.901     195.795     68.4638     35.5526    0.878097     170.566    0.521474     19.2332     23.6117      44.095     163.925     20.5402      173.67     38.8114     68.7947      225.82     814.354     156.691     41.9184     41.8139     156.608     814.419     225.954     68.9745     39.1136     173.655     20.6291      164.08     44.0778     23.8742     19.1139     0.49282      170.84    0.882736     35.6605     68.4576       195.9     587.869     4.09989     317.265     66.2959     50.1052      405.59     241.275     116.228     20.8224       297.3     676.699     0.54738     13.4534     59.2793     33.6003     758.198     95.5815     5.09225     38.3345     4.67285     33.9532      75.241     57.3408      16.886     114.872     71.1782      5.3059     5.84505     92.6583     12.9269     6.05346     225.973
    27.4692     9.35802     14.6307   0.0638216     2.67709     90.9585       101.7     15.6676     85.9458     34.7164    0.155497     69.8788     3.30712     20.0538     140.539     17.1014     234.378     59.5096     214.574     13.0442     122.125     79.5488     9.61081     37.4551     191.776     17.8848     31.4447     16.9826     71.2577    0.454034     18.3229     16.6071    0.293891    0.521721     12.2571     42.7743     75.0514     3.20654     2.28082    0.413037     3.93458     81.5583     5.62554     119.797      4.2764     50.1093      27.066     400.312      2.1834      106.72      106.54     2.15474     401.045     27.2537     50.2008     4.33865     119.553     5.67527     81.4481     3.97847    0.431524     2.24893     3.15144     75.0248     42.7998     12.2391    0.491855    0.308282     16.7044     18.5096    0.461885     71.0469     16.9628     31.4324     17.5207     191.661     37.3166     9.38661     79.2092     121.752     12.8894     215.346     59.3962     233.078     17.0317      140.48       19.99     3.27869     69.5345    0.156352     34.6742       85.42      15.877     101.754     91.4887     2.72395   0.0821714     14.5369     9.53148     27.2718
    56.6928     19.5108     77.2543   0.0489816     8.18462     188.434     7.21985      50.483     39.3112     97.0912      122.09     104.658     0.39564     292.699    0.424015     24.4058     211.816     13.5215     13.0441     15.2302    0.443353     91.1347     69.0984     109.854      362.86     9.73225     14.4072     103.249      1.3344     2.32738     37.3631       192.1     44.9529     19.9101     63.7825     122.642     116.717     1.27411     17.2353     27.5221     37.3955    0.227744     73.0939     1.81893      80.681    0.102749     29.1756     69.8634   0.0505458      82.786     82.6003   0.0502244     69.7334     29.0311   0.0946027     80.8703     1.81139     72.8846    0.221353     37.6666     27.4661     17.2259     1.27263     116.939     122.448     63.6045     19.9042     45.0807     192.539     37.3816     2.26887     1.34847     103.144     14.4708     9.83508     363.058      109.93     69.1179     91.9263    0.399815       15.22     12.9751     13.7433     211.963     24.4707    0.411674     292.121     0.37459     105.186     122.425      97.168     39.1967     50.2742     7.05729     187.931     8.21528   0.0454011     77.2089     19.0583     56.7856
    207.371     469.659     50.0597     140.966     38.4187     169.267     407.379     56.8081    0.117093      134.34     5.18662     365.086     36.1146     82.2757     27.7399     267.691     487.965    0.529406     122.125    0.443353     7.39718     265.026     1.52658     78.8053     45.0777     156.992     7.63802     90.0426    0.638548     45.2153     85.4071     80.2832     145.889     4.01532   0.0895339    0.682345     198.209     421.446     47.4391    0.169432     127.242     166.092     193.045     259.582     3.79732     292.579     275.246     237.785      259.43     74.7863     74.7932     259.501     237.943     274.557     292.717      3.7785     259.745     192.741     166.203      127.04    0.174621     47.1393     421.867     198.418    0.688326   0.0917974      4.0105     145.563      80.133     85.3077     45.2942    0.664559     90.1984     7.64705     156.842     44.8112     79.1526     1.50621     265.305      7.2845    0.419111     121.002    0.480673     487.084     268.646     27.4681     81.7998     36.1899     365.466     5.29163     134.227    0.114166     56.7581     407.092     169.522     38.3223      140.95     50.3889     471.335      206.74
    3668.72     521.112     156.538     87.4335      285.01     2072.86     184.319     124.264     24.5014     49.8883     1107.76     16599.1     474.988      61.298     43.5824     451.242      138929     677.232     79.5487     91.1346     265.025     12949.2     1046.61     330.882     52.4193     207.995     18617.7     1287.97      541.01     142.207     528.393     6628.47     2301.92     129.317     149.434     312.635     3522.94      4656.7     173.694     174.376      306.94     1477.58     2708.42     265.755      203.83     727.123      1043.5      210239     412.172     375.609     375.207      411.72      210338     1043.49     727.835     203.361     265.697     2722.97     1478.23     308.583     174.051     173.327     4666.34     3522.02     312.289     149.264     129.532      2308.5     6627.38     528.626     142.769     539.728     1288.94       18605     208.424     52.5528      331.29     1046.54     13062.9     266.785      92.751     79.0282      677.05      138763     452.479     43.4648      61.164     473.779     16559.6     1107.31     49.5056     24.2282     124.109     184.463     2072.04     285.061     87.9736     156.356     528.428     3670.68
    6.71857     387.504     97.6106     129.924      51.776     334.414   0.0579694     29.2955     3.39205     2.40548     904.878    0.129081     129.657     28.3083     22.8588     318.933     1317.79     297.092     9.61092      69.099     1.52657     1046.61     565.882     28.2694     292.022     157.286     568.657       636.6     5.76621      360.72      27.795     509.029     353.999     135.479     184.639     73.5261     72.4563      434.75     207.066     33.0838     130.744     14.3889     124.074     53.1722     25.6562     60.4284      16.044     1365.72     205.737      9.1374     9.16321      205.36      1366.7     16.0661     60.7422     25.6946      53.258     124.087     14.2015     130.557     33.0975     207.298      434.97     72.3615     73.2722      184.78      134.93     353.828     508.833     27.9216     360.536     5.81119     637.021     569.316     156.775     293.264     28.1416     567.715     1044.26     1.62554      68.787     9.16767     298.069     1318.46     318.706     22.6089     28.0652     129.568    0.125235     903.528     2.40987     3.45793     29.5994   0.0625572     334.251     51.6584     130.216     97.9345     388.676     6.65153
  0.0017655     1.62006     10.6442   0.0171059      39.248     1.10638      9.3863     13.2303     54.0803     50.4641     5.80428     45.9667     15.5439     151.906     14.4833      51.978     180.171     20.6556     37.4551     109.854     78.8048     330.884     28.2695     125.738     1.43801     15.6588     2.32943     2.98991    0.119843     54.7376     1.00469     73.6753     14.4844     170.211     102.256     7.79995     101.044      76.834     5.60955      57.411     7.00839     101.003     3.92952     1.38181     202.344     28.7273     12.8729     305.255     59.6122     36.1149     35.9921     59.5282     304.958     12.7819     28.8411     202.525     1.41333     3.91171     100.993     6.86961     57.2513     5.58367     76.6927     100.897     7.68712     101.954     170.177     14.3296     73.7144    0.985615     54.7473    0.130574     2.99234     2.29696     15.5359     1.37524     125.332     28.2362     331.382     79.3533     109.524     37.1823     20.7677     180.243     52.2312      14.458     152.421     15.5919     46.0545     5.78514     50.5955     54.2768     13.1671     9.36065     1.12675     39.4295   0.0164159      10.554     1.58617  0.00129633
    21.2257     67.1945     37.1997     6.93626      36.567    0.336075    0.257297     1.10291      64.934    0.207861     13.1479     129.473     0.96388     22.1974     8.80348     13.0847     273.599     116.284     191.776      362.86     45.0777      52.419     292.021     1.43798     10.6969     10.8359     4.74932      278.88     15.0394      39.793     1.14205     132.423    0.687711     3.33296      6.5508     61.3873     76.8286     93.8395    0.484417     4.59709     81.3365     8.74603      58.173     52.5939     4.56909     135.313     9.64808     109.195     10.9176     59.8934     60.2359     10.9223     109.534     9.66425     135.263     4.60766     52.5993     58.0699     8.70231     81.5911     4.64623      0.4695     93.7081     76.7946     61.6521      6.5876        3.34    0.680573     132.385      1.1317     39.6962     15.1101     279.148     4.84694     10.8027     10.6313     1.48144      294.83     52.1675     44.9275     363.393     191.344     116.404     273.095     13.1991     8.75619     22.0834     1.04656     129.512     13.0541    0.223635     64.7224      1.0629     0.27651    0.326023     36.6224     6.88005     37.4742     68.2787     21.2338
    4.93211     74.7375     105.957     246.247     26.3016     103.993     330.126     336.667     28.2221   0.0575497     52.1996     413.215      3.0049     75.1213     7.15699     145.302     377.929     240.148     17.8847     9.73223     156.992     207.996     157.286     15.6588     10.8359     56.3331     1.21402     1.98951     26.3367     182.734     226.484     27.9073     258.305      141.41     3.55684      5.0021     26.2273     433.677     5.30267    0.173456     1.68624     173.739     168.136      24.448     1.02286     12.0895     160.174      379.63     9.83697     86.0276     85.9871     9.94776     379.585      160.11     12.0603     1.05237     24.4216      168.03     173.988     1.68911     0.19927     5.40404     433.317     26.1146     5.09847     3.55867     141.561     258.122     27.8408     226.258     182.458     26.2867     1.98856     1.20814     57.5398     10.8024     15.4745      156.11     207.662     156.812     9.89433     17.6526     240.013     378.102     145.744     6.97489     75.4355      2.9769     411.446     52.4856   0.0590461     28.1755     335.994     330.246     103.866     26.1404     246.085     106.012     74.7126     4.91131
    4505.22      1.4699     17.6361     10.6579     30.6995     1360.26     9356.96     111.662     1.16062     77.7134     234.446     13029.7     216.941     19.5172     103.465     4.10689     10871.5     405.202     31.4449     14.4072     7.63812     18617.8     568.656     2.32944     4.74932     1.21404     9626.93     1006.48     17.3574     86.3901     2.02965     2468.13     1086.07    0.152228     67.8958    0.213524     2197.77     713.235     17.5003     1.91586    0.733761      948.86     3771.92    0.548677     20.7293     4.37884     120.983       21341      48.464     41.7887     41.7414     48.1201       21338     121.347     4.39281     20.7571    0.534203     3780.67     950.435    0.674077      1.9497     17.7611     710.449     2196.76     0.22542     67.7753    0.134516     1088.91     2463.47     2.00713     86.5147     17.1815     1006.41     9632.34     1.17336     4.67542     2.29481     567.103     18595.5     7.66746     14.3561     31.6112     403.567     10869.7     4.21914     103.224     19.7364     216.044     13028.1     235.216      77.936     1.19392      110.93     9354.94      1359.6     30.7218     10.6896     17.5103     1.21644     4504.74
    673.119     805.964     21.8235     41.3941     11.3999     320.407     297.113     33.4295     76.1468     44.0305     456.197    0.013841     65.6796     5.54509     6.38056     318.187     2515.13     50.1043     16.9827     103.249     90.0429     1287.97     636.599      2.9899      278.88     1.98951     1006.48     140.664     3.08398     89.8886     143.719     64.8306     121.663     26.9682     110.127     88.9453     765.062     1330.46     21.7213     43.2827     26.4038     406.305     1035.32       237.5    0.660682     22.9741     34.4146     2114.19     474.078     1.19838     1.23727     473.616     2116.14     34.7008     22.7861    0.701933     237.915     1035.44     405.841     26.3553     43.5196     21.8649     1330.26     764.947     89.1512     110.036     26.9221     121.196     64.6591      143.75     89.5553     3.10853     140.411     1005.59     2.01996     278.662     2.97545     636.055     1287.79     90.8563     103.181     16.9886      50.566     2515.05     316.335     6.34705     5.60938     65.8713  0.00684316     456.234     43.6858     76.2954     33.2398     298.117     320.621     11.4993     41.3779     21.5873     807.005     672.315
    10.2431     60.2471     154.941    0.801256     110.923     9.93482    0.724874     123.958    0.556576     36.0663     24.3082     27.0363    0.161869    0.502549     63.6733     188.918     223.061     66.5671     71.2576     1.33439    0.638554      541.01      5.7662     0.11984     15.0394     26.3368     17.3572     3.08396     227.784     7.02817     85.3436     185.661     49.2033     25.3612     115.627     149.193     72.8868      86.297     11.7074     3.50221    0.812843     19.6736     49.4353     65.1856     48.5542      46.784      0.2051     164.614     6.17579     24.2988     24.1432     6.23781     164.053    0.211691     46.5267     48.7503     65.3816     49.4322     19.6596    0.794028     3.50357     11.6288     86.3358     73.1343     148.955     115.651     25.4566     49.1041     185.563     85.3766     7.06854     229.417     3.12164     17.2463     26.3895     15.1692    0.121695       5.739     540.328    0.625826     1.26386     71.5433     66.1347     223.338     189.442     63.5118    0.572137    0.163958     27.0459     24.5067     35.8666    0.548021     124.435    0.799371     9.84972      111.06     0.80735     154.681     60.3827     10.1834
    9.24262     16.4856      22.731     1.46949     84.4953      18.936     16.6776     77.5375     1.45826     5.41991     4.67928     14.0676     30.5457     77.8976     133.833     4.27328     240.014     316.935    0.454031      2.3274     45.2152     142.208     360.722     54.7375     39.7928     182.735     86.3905     89.8887     7.02814    0.542954    0.694535     129.413    0.487559     5.55032     30.9251     175.768      8.2207     116.046     27.5986        47.4    0.039074     9.39744      82.182     3.81539     15.4704     13.3284    0.168828     198.641     7.97283     42.4831     42.4645       7.863     198.456    0.158391     13.2584     15.4333      3.8015     82.0076     9.41301    0.036583     47.5536     27.7176     116.046     8.28298     175.728       31.06     5.58168    0.468164     129.532    0.692717     0.54221     6.99049     89.9989     86.4531     182.608     39.7467      54.537     360.913     142.143     45.3163     2.25414    0.452521     316.027     240.396     4.27422     133.617     77.9951      30.189     14.1004     4.68123     5.41712     1.45908     77.1163     16.7324     18.9698      84.811     1.45919     22.7842     16.3006     9.28296
    32.3765     74.7211     65.0676     32.2402     249.402     59.4676     193.018     8.07449      4.1131     15.5776     45.5179     159.538     652.369     4.12068     79.3706     23.3943     211.693     4.04497     18.3229     37.3631     85.4071     528.393     27.7951     1.00469     1.14206     226.483     2.02961     143.719     85.3438    0.694544     10.3288     116.819     106.347     112.087     11.9181     86.9529     91.9364     159.352      23.324     0.32787     101.755     154.903     199.244     25.4002     1.24012     4.79991     442.919     255.442     1.26416     72.5278     72.6319     1.25925     255.005     442.688     4.71692     1.24771     25.3321     199.425     154.841     102.025    0.335491     23.3408     159.585     91.8025     87.0279     11.9504     112.026     106.277     116.853     10.0649    0.683667     85.2193      143.72     1.97119     226.998     1.14412     1.01492     27.5539     528.511     85.1793     37.4612     18.4221     4.10313     212.301     23.7218     79.3647     4.09824     653.381     159.347     45.4666     15.4976     4.07327      7.9253     192.916     59.2246     249.176     32.2466     65.5849     74.9553     32.4094
     1983.6     957.669     15.8615     41.4476     570.836     806.888     4322.78     210.423     74.2198     141.808     519.369      45.068     186.235     110.505     84.0844     31.6007     4080.49     588.901     16.6071     192.099     80.2832     6628.45     509.028     73.6753     132.423     27.9074     2468.14     64.8308     185.662     129.414     116.819        1999     1706.73     10.3765     71.3293     99.4799     40.7889     765.195      35.442      77.977     58.3396     734.382     4084.29     31.6387     15.1579     61.4204     384.408     6742.63     29.6895    0.113649    0.102764     29.5951     6741.85      384.52     61.6074     15.1871     31.8065     4083.12      734.05     58.2748     77.6472     35.9187     762.585     41.2757     99.0588     71.7286     10.4461     1706.36      1995.3     116.812     129.303     185.536     64.7875     2467.08     27.9164      132.32     73.6261     508.945     6622.12     79.9765     192.117     16.7928     586.324     4078.17      32.376     84.3369     110.665     186.288     44.8411     520.408     141.984     74.2614     209.947     4322.56     806.892     570.813     41.3263     15.5482     960.527     1983.23
    320.004     1231.05     16.5726   0.0400125   0.0615203     82.5013     2055.31      50.215     1.66379     3.98621     471.035     141.392     4.19116     23.5072     37.7264     4.09527     4602.08     195.795    0.293889     44.9529     145.888     2301.93         354     14.4845    0.687708     258.306     1086.07     121.663     49.2035    0.487559     106.347     1706.72     231.081     183.614    0.321986     182.243     1600.28     618.182     68.3113     3.35184     159.585      267.76     2770.71      10.295      39.994     4.15713      369.28     4482.32     53.8104     19.6778     19.5514     53.5973     4483.76     369.285     4.19217     40.0696     10.4174     2771.23     267.225     160.343     3.38181     68.6804     619.168     1600.71     182.555    0.319064     183.857     231.762     1708.64     106.189    0.494168     49.2924     121.675     1084.98     257.419    0.694396     14.2599     354.507      2302.8     145.192     44.9219    0.287611     195.821     4603.38     4.20702     37.6591     23.4271     4.11095     140.524     471.505     3.93764     1.68795     50.8147     2056.26     82.2399   0.0631615   0.0484227     17.0209     1228.13     320.341
    11.6263     4.84156     46.5869     10.5098     1.59244     138.626     122.041      57.031     14.2734     67.9036      426.51     177.249     61.9875     37.2023     48.8711      42.166     500.011      68.464     0.52172     19.9101      4.0153     129.317     135.479     170.211     3.33297      141.41    0.152221     26.9682     25.3611     5.55032     112.087     10.3764     183.615     5.02249     9.28441     39.4707     84.9032     167.767     23.7126   0.0241127     148.463     3.87477     11.4309     193.171     41.1906   0.0202246     43.2441     456.761     95.2453     1.49308     1.52354      95.356     457.413     43.3359    0.014381     41.0917     193.288     11.4385     3.85094     148.622   0.0226521     23.8868     167.634     84.6837     39.4297     9.32822     4.91363     183.759     10.4025     111.995     5.55338     25.3698      26.969    0.149764     142.329     3.30979      169.85     135.102     129.189     3.99571     19.9502    0.502766     68.5539     499.802      42.238     48.9083     37.2883     61.7638     177.247       426.9     68.0481     14.2671     56.6051     121.863     138.569     1.61665     10.4942     46.7093     4.82067     11.6006
     13.602     15.2104   0.0927382     29.5656     1.59897      41.081     38.2114     19.4024     4.56094     77.7386     22.7653     33.9698     23.5385    0.541265     108.029     29.2716     223.787     35.5525     12.2571     63.7828   0.0895301     149.434      184.64     102.256     6.55081     3.55683     67.8959     110.127     115.628     30.9253     11.9181     71.3293    0.321985     9.28442     119.054     7.91595     15.6192      161.71     264.608     116.971     40.4371     34.6743     65.8098     97.3789     65.7453     0.13948     113.681     302.328     2.17377     54.2831     54.1842     2.13263     302.892     113.867    0.135761     65.8149      97.471     65.7591     34.8074     40.5765     116.925     264.015     161.451     15.5149     7.84463     118.586     9.34186    0.331548     71.4064     11.8792     31.0127     115.545     110.376     67.7141     3.51441      6.6152     102.051     184.728     149.312   0.0908299      63.524     12.0692     35.9026     223.643     29.3067     107.766    0.518664     23.6483     33.7782     22.4987     77.7081     4.61742     19.4333     38.3557      41.157      1.5925     29.7471   0.0746238     15.2342     13.6304
    167.787     15.7553     27.3038     18.5986      13.751     119.591     91.8356     184.084     217.425     56.1025     6.52327     286.107     91.5334     9.76835     1.58419     60.2558     226.805    0.878087     42.7743     122.641    0.682342     312.634     73.5261     7.79994     61.3877     5.00209    0.213521     88.9455     149.194     175.769     86.9522     99.4805     182.244     39.4706     7.91595     54.5436      26.719     148.887      120.83       52.36      2.5481     8.15339     11.2032      56.078     44.9867      123.63     171.043     339.693     69.0639     13.6761     13.7959     68.8494     339.857     171.232      123.56     45.0644     56.0812     11.3346     8.11503     2.63011     52.2691     120.543     148.871     26.6347     54.6651      7.8404     39.4242     182.511     99.5311     86.9389     175.823     149.024     88.9407    0.212169     5.08881     61.6459     7.80668     73.8576     312.413    0.696356     122.356     42.6743    0.893549     227.359     60.3513     1.53159     9.79183     91.3221     285.881     6.41587     55.7624      217.42     184.179     91.7723     119.476     13.8491     18.5693     27.6281     15.5226     167.875
    1584.37     236.524    0.508876     2.16913      244.79     1198.46     479.981     212.245     82.9964     157.489    0.410231     135.183     778.065     87.4935     83.5944     251.792     2195.82     170.565     75.0513     116.716     198.209     3522.94      72.456     101.044     76.8287     26.2274     2197.77     765.058     72.8864     8.22075      91.936     40.7887     1600.28     84.9035     15.6192     26.7193    0.352641     1666.16     18.2219    0.662603     13.3448     595.777     740.604     30.6864    0.880736     87.5722     216.392     2332.16     246.406     107.928     108.164     246.032     2333.24     216.489     87.2982    0.871919     30.5824     740.186     596.066     13.4001    0.660215     18.3925      1667.9    0.388425     26.5256      15.507     84.8796     1600.24     41.2421     91.8067     8.26583     73.1708     766.001     2199.32     26.1677        76.9     100.998     71.6588     3522.68     199.026     117.109     75.1297     170.934     2194.44     251.952     83.6158     87.6095     777.725     135.336    0.461976     158.073     83.3058     211.776     479.126     1198.33     244.564     2.15682    0.465158     238.511     1584.33
    1280.21     889.094     25.7477     24.1164     39.2252     529.803     3.92022      79.388     2.99185     21.3888     71.9151     3545.69     8.70999     18.4349      1.1514     529.328     10857.4    0.521482     3.20651     1.27413     421.444     4656.69     434.749     76.8345     93.8395     433.676     713.232     1330.46     86.2965     116.046     159.351     765.199      618.18     167.767     161.711     148.888     1666.16     3340.63     84.8255     66.0481      166.23     352.611     4780.03     132.531     55.1716     125.615     33.1535     10712.8     115.978     178.962     179.071     116.657       10709     33.6026     125.617     55.1147     132.499     4783.16     353.522     166.224     66.1904     84.9848     3342.03     1666.42     148.573     161.134     167.619     619.924     767.324     159.335     116.303     86.7647     1329.58     714.649     433.846     93.6544     76.7709     433.798     4652.73      420.91     1.30132     3.21789    0.461679     10858.9     526.691     1.14135     18.4529     8.80797     3543.29     71.3274     21.6101     3.01212     79.8897     3.92692     530.474     39.2395     24.1229     25.9328     886.301     1280.22
    140.458     118.136     48.0425     62.3327     2.57453     166.402     257.677    0.238304     25.0425     26.8484     412.937     87.5932     11.9837     27.1806   0.0183835     20.9479      712.64     19.2332     2.28081     17.2353     47.4389     173.694     207.065     5.60951    0.484412     5.30269     17.5004     21.7214     11.7075     27.5987     23.3241      35.442     68.3109     23.7125     264.608     120.831      18.222     84.8256     268.211     35.4007     36.3377     110.652     68.8275     22.5869     61.7473     15.3367     2.05867     434.525     436.111     3.39001     3.41674     436.072     434.775     2.05713     15.3016     61.7206     22.5975     68.7707     110.818     36.3666     35.6224     268.483     84.6426     18.0925     120.971     264.529     23.7699     68.4308     35.4318     23.4035     27.6552      11.675     21.7279     17.3746     5.23439    0.460488     5.59277     207.525     173.779     47.7696     17.1394     2.23696     19.3255     711.937     20.6317   0.0202572     27.2497     12.0478     87.4813     412.767     26.7749     24.9802    0.256735     256.789     166.623     2.55502     62.4995     47.7627     118.055     140.568
     109.61     3.11948     78.2289     40.3666     5.00487     143.103     23.3559      6.8696     0.44813     73.3682     101.839     134.195     6.90023     21.8722     12.0148     4.61398     221.164     23.6117    0.413034     27.5222    0.169433     174.376     33.0838      57.411     4.59708    0.173461     1.91587     43.2826     3.50221     47.3999    0.327873     77.9768     3.35183   0.0241139     116.971     52.3601    0.662608     66.0482     35.4006     232.697     9.45614     64.4677     57.5061     84.0907     68.7811     1.48614     80.3749     152.086     5.02064     20.0449     20.0564     4.99571     152.185      80.513     1.48899      68.511     83.9863     57.6522     64.3443     9.45324     233.132     35.3343     65.9786    0.692382     52.5535     116.744   0.0217952     3.38854     77.7427    0.322357     47.4866      3.4863     43.3854     1.92064    0.188702     4.51208     57.3093      33.064     174.252    0.170032     27.7346    0.410222     23.5641       221.4     4.57807     12.1622     21.9303     6.96684     134.186     102.226     73.5179    0.416889     6.97197     23.3926     143.128     5.01498     40.4699     78.0742     3.17176     109.717
    174.051     12.0329     24.3452     3.61481     120.037     115.565     29.2855     54.8174     80.0903      16.259      36.692     206.724   0.0193349     18.7289     9.29786     131.277     210.529     44.0952      3.9346     37.3954     127.242     306.941     130.744     7.00837     81.3368     1.68626     0.73377     26.4038    0.812853   0.0390768     101.754     58.3392     159.586     148.463     40.4371     2.54807     13.3449     166.231     36.3376     9.45614     217.717     28.7961     2.26514     4.10082     40.1097     43.0482    0.289297     379.303     142.458     110.648     110.858     142.201     379.254    0.272829     43.0919     39.9901     4.12856     2.31657      28.893     216.729     9.56816     36.6558     166.076     13.4343     2.57498     40.4614     148.733     159.654     58.4434     101.707   0.0379049    0.806286     26.3697    0.779463     1.76478     81.8161     6.94137     130.105     307.379      127.32     37.6174     3.81505     44.2687     210.263     131.247     9.28474     18.8314   0.0256975     207.239     36.6444     16.4571      79.896     54.8862     29.2506     115.436     120.126     3.57989     24.0327     12.0838     174.309
    22.6685     576.804     146.547     4.33182     108.357     328.975      161.86     162.008     11.3931     121.752      51.837     495.477     74.7509     5.32257      8.9081     152.011     1399.76     163.925     81.5578    0.227745     166.091     1477.57      14.389     101.002     8.74611     173.739     948.857     406.304     19.6735     9.39752     154.904     734.378     267.759     3.87475     34.6742     8.15346     595.779     352.611     110.651     64.4672     28.7961     735.406     108.879     62.7243     1.97085     23.9464     171.255     2017.11    0.679357     64.0378     63.8857     0.66871     2017.12     171.127     23.9827     2.00425     63.0185     108.515     734.542     28.7852     64.5551     110.424     352.417     596.297     8.15671      34.662       3.932     268.196      733.81      155.08     9.39033      19.687     406.534     949.633     173.793     8.72401      100.98     14.5038     1477.81     165.654    0.212576     81.5077     163.772     1399.19     152.336     8.89982     5.32518     74.9297     496.066     51.8256     121.673     11.3834     162.542     161.767     328.835     108.525     4.35136     146.069     576.065     22.6437
    1002.89     1871.26     44.8405     23.2433     58.1576     3.79385     48.2691     0.81971     4.79759   0.0977105     306.749       18117    0.162165     2.54001     4.71389     235.817     46584.1     20.5403      5.6256     73.0941     193.046     2708.41     124.074     3.92953     58.1731     168.136     3771.92     1035.32     49.4352     82.1827     199.245     4084.29      2770.7      11.431     65.8098     11.2033     740.603     4780.04     68.8271     57.5059     2.26515     108.878     8979.69      60.169     62.9963     172.865    0.135513     37384.9     4.61379     135.766     135.948     4.71463     37393.8    0.151539     172.727     63.0978     60.3557      8963.2     109.418      2.2806     57.6898     69.2907     4786.22     742.291     11.2376     65.6734     11.5354     2769.65     4086.58     199.192     82.1777     49.3151     1034.65     3766.67     167.746      58.105      3.9843     123.258     2692.46     192.529     73.2456     5.63244     20.3767       46576      235.04     4.64984     2.60854     0.14544     18128.5     305.696   0.0992349     4.78099    0.835623     48.1984     3.80043     58.2117     23.3651     45.1986     1876.97     1003.14
    437.839     350.215     16.8205     67.2793     1.14052      392.32     249.196     32.9701      3.3636      51.764    0.921091     154.337     128.039     26.6585      130.98     4.85442     866.837     173.671     119.797     1.81895     259.582     265.756     53.1719     1.38181     52.5936      24.448    0.548677       237.5      65.185     3.81539     25.4003     31.6386      10.295     193.172     97.3787     56.0781     30.6866     132.531      22.587     84.0907     4.10081     62.7243     60.1691     293.227      4.1275     65.8345     41.3517     427.855     70.0115     35.9827     35.8385     69.8284     428.187     41.4126     65.6693     4.07331     293.245     60.0358     62.7679     4.15767     83.9978     22.6606     132.337     30.8462     56.0851     97.3856     193.105     10.3243     31.4916     25.4884     3.82803     65.2421     237.449    0.569824     24.4203     52.3415     1.43662     53.2674     265.848     259.264      1.7752     119.739     173.745     867.029     4.84738     131.193     26.6445     128.279     154.085    0.918114     51.8034     3.37288     32.8524     249.111     392.094     1.16086     67.3681     16.6129     350.483     437.792
    252.794     61.1357     76.1993     14.3492     1.60939     193.627     15.3839      2.0318     17.9037     236.642     29.2044     245.288      5.9498     18.3155    0.227006     5.68707     211.946     38.8117     4.27644      80.681     3.79732     203.831     25.6559     202.344     4.56912     1.02286     20.7293    0.660708     48.5542     15.4704     1.24012     15.1579     39.9941     41.1906     65.7452     44.9866     0.88074     55.1716     61.7472     68.7812     40.1097     1.97086     62.9957     4.12751     61.7961    0.176174  0.00317503     117.511  0.00263078     36.8156     36.8664  0.00261736     117.549   0.0030983    0.178767     61.7354      4.0787     63.1188     1.99906     40.1704     68.5869     61.8154     55.1208    0.861076      44.978     65.7782     41.0515      40.135     15.1457      1.2564     15.4712     48.5426    0.701068     20.7017     1.04088      4.5106     202.673     25.6792     203.757     3.75565     80.8742     4.29752     38.8063     212.069     5.69823    0.219249     18.2142     6.05343     244.676     29.0643      236.89     17.9283     2.04058     15.3842     193.562     1.60053     14.3403     76.1535     61.3067     252.804
     44.771     76.1683     18.8578     1.04071     14.5518      233.14    0.119788     4.95894     185.827    0.435743     39.5087     14.6395     4.07169   0.0746835      85.492     66.1001     120.547     68.7947     50.1093    0.102745      292.58     727.128     60.4282     28.7274     135.313     12.0896     4.37885     22.9741     46.7841     13.3284      4.7999     61.4205     4.15709   0.0202249    0.139485      123.63     87.5724     125.616     15.3367     1.48613     43.0479     23.9462     172.865     65.8343    0.176173     223.542     10.8488     217.373     1.99167      71.526     71.4457     1.96402     217.234     10.8186     223.286    0.171013     65.6884     172.787     23.8721     43.2467     1.54158     15.3199      125.63      87.564     123.452    0.130849   0.0212263     4.14108      61.537      4.7514     13.3068     46.6869     22.7938     4.40709     12.0987     135.505     28.4414     60.3524     726.263      292.45    0.103084     50.1676      68.982     120.477     65.9199     85.6497   0.0775979     4.09018     14.6393     39.4029     0.43254     185.629     4.97057    0.123888     233.082     14.5572     1.04257     18.7991     76.3344     44.7756
    136.478     66.3548     121.887     3.28658     8.70254     404.151     809.541    0.129411     25.6955      10.457     37.8164      270.24     201.082  0.00114499   0.0395645     153.315     975.235     225.822      27.066     29.1753     275.246      1043.5     16.0439     12.8729     9.64811     160.174     120.983     34.4144    0.205102    0.168831     442.921     384.407     369.278     43.2438      113.68     171.044     216.392     33.1535      2.0587     80.3752    0.289299     171.255    0.135501     41.3515  0.00317525     10.8489     535.569     1206.03     14.2846    0.110778    0.117312     14.3673     1206.03     535.141     10.8713  0.00265823     41.1599    0.133893     171.035    0.275617     80.6156     2.13263     33.0967     216.136     171.236     113.929     43.3296     368.823     384.118     442.418    0.160597      0.2049      34.379     120.842     160.058     9.60176     12.8664     15.5726     1042.54     275.117     28.9982     27.1039     225.271     975.336     153.784   0.0375852  0.00337652     200.874     270.413     38.1325     10.3454     25.6505    0.126901     809.377     404.118     8.72431     3.28951     122.308     66.5786     136.438
    1523.74     3493.67     159.972     86.3537     56.2082     631.515     7456.83     337.256     73.7864     287.784     621.856     23879.4     307.008     127.609     240.832     397.704 1.00474e+06     814.356     400.312     69.8631     237.786      210239     1365.73     305.259     109.195     379.631     21341.2     2114.18     164.613     198.642     255.442     6742.67     4482.32     456.761     302.328     339.695     2332.17     10712.8     434.522     152.086     379.303     2017.11     37384.7     427.853     117.511     217.372     1206.03     26224.7     752.002     229.155     228.803     751.556       26376     1207.33     217.584     117.671     428.134       37406     2018.92     379.516     152.189     435.387     10713.3     2336.04     340.009     302.522     457.366     4482.07     6746.73     255.295     198.442     164.526     2116.43       21352     380.549     109.618     305.672     1367.79      210020     238.251     71.1209     399.888     813.706 1.00492e+06     400.878     240.853     127.248     307.669     23925.3     622.677     288.047     74.0219     337.814     7457.15     631.493     56.2067     86.3891     161.467     3501.37     1523.58
    517.341     376.921     54.6895     16.2833     105.368     81.3591     449.795     4.18483     45.7258     93.0316     311.577     347.906     290.767     2.06269   0.0704625     324.359     946.575     156.692     2.18341   0.0505471      259.43     412.175     205.737     59.6119     10.9175     9.83702      48.464     474.081     6.17586     7.97285     1.26416     29.6897     53.8103     95.2454      2.1738     69.0639     246.405     115.978     436.112     5.02062     142.458    0.679375     4.61375     70.0112  0.00263087     1.99166     14.2847     752.001     145.778     1.27527     1.27003     145.951     752.164     14.2626     1.98051  0.00334337     69.7425     4.62485    0.700111     142.011     5.00046     436.227     116.369     245.851     68.6735     2.13765     95.2619     53.6648     29.9141     1.26929     7.90283     6.18724     473.196     48.4579     9.89702     10.8853     59.4988     205.575     412.231     259.669   0.0478362     2.16766     155.963      945.35     324.992   0.0731119       2.086     290.419     348.308     311.556     93.4078     45.8294     4.25096     449.741     81.3496     105.345     16.2955     54.7178     377.899     517.371
    109.999     282.094  8.6154e-06     5.22502   0.0719544     118.459     1.61461     94.8225      26.461     45.3969      12.972     143.069     16.1333     133.609     113.068     2.04954     156.002     41.9186     106.719     82.7862     74.7862     375.608     9.13746     36.1149     59.8936     86.0275     41.7882     1.19837     24.2987     42.4831     72.5278    0.113636     19.6778     1.49307     54.2833     13.6762     107.928     178.963     3.39003     20.0448     110.647     64.0378     135.766     35.9828     36.8157     71.5258    0.110777     229.157     1.27526    0.967728    0.946357     1.26511     229.036    0.109075     71.5975      36.898     35.9263     135.906     63.9737     110.475     19.9751     3.43495     179.003     107.904     13.7024     54.2802     1.50402     19.6237    0.111354      72.489     42.4639     24.2433     1.21498     41.8682     86.0703     59.8942     36.1443     9.13709     375.333     74.9183     82.7837     106.803     41.9123     156.308     2.04751     113.045     133.658     16.1804     142.892     13.0103     45.4766     26.4747      94.787     1.61276     118.457   0.0719501      5.2291 5.00701e-05     282.508     109.995
    110.216     283.242 0.000221377     5.22866   0.0720464     118.626      1.5981     94.8698      26.535     45.2476     13.1225     144.576     16.1498      134.17     113.135      2.1025     156.535     41.8141      106.54     82.6006     74.7931     375.208     9.16322     35.9921     60.2362     85.9871     41.7414     1.23728     24.1431     42.4645      72.632    0.102757     19.5514     1.52353     54.1844     13.7959     108.165     179.071     3.41675     20.0564     110.857     63.8856     135.948     35.8385     36.8665      71.446    0.117313     228.804     1.27003    0.946361     0.92538     1.25924     228.629    0.115832     71.5372     36.9729     35.8262     136.206     63.8774      110.74     19.9922     3.43455      179.02     108.013     13.8512     54.1722     1.51411     19.4876    0.106935      72.515     42.4345     24.0867     1.25375     41.7557     85.9289      60.241     36.1042     9.19762     374.896     74.7662      82.716      106.64     41.7909     156.614     2.09335     112.785     133.864     16.2253     144.283     13.0145     45.3648     26.4778     94.6937     1.59873     118.626   0.0718589     5.22802 0.000508818     283.209     110.198
    517.397     377.425     54.7371     16.2341     105.082     81.5682     449.807     4.16766     45.8264     93.0937     311.704     348.201     290.788     2.06063   0.0619724      325.11     946.511     156.608     2.15475   0.0502246     259.502     411.719     205.362     59.5281     10.9223     9.94776     48.1202     473.618     6.23778     7.86304     1.25925     29.5953     53.5972      95.356     2.13263     68.8497     246.033     116.656     436.072     4.99569     142.202    0.668712     4.71463     69.8281  0.00261721     1.96399     14.3673     751.555      145.95     1.26511     1.25924     146.351      751.86     14.2935     1.97877  0.00188002     69.7807      4.7594    0.677942     142.002     5.00176     436.778     116.707      246.21     68.6609     2.13859     95.0677     53.3607     29.6292     1.29815     7.86424     6.25845     473.936     48.1934     9.94785     10.8786     59.4836     205.157     412.383     259.543   0.0465435      2.1607     156.178     945.774     325.784   0.0694845     2.12045     291.005     347.695     311.805     93.1098     45.6976     4.29747     449.791     81.5997     105.214     16.2146     54.5812     378.095     517.503
     1523.1      3497.9     159.834     86.4835     56.3476     630.826      7461.7     337.228      73.551     288.686     621.428     23903.3     306.683     127.743     241.125     398.237   1.005e+06     814.422      401.04     69.7333     237.943      210338     1366.71     304.955     109.534     379.585       21338     2116.12     164.051     198.456     255.005      6741.9     4483.79     457.415     302.893     339.859     2333.25       10709     434.773     152.185     379.253     2017.12     37394.3     428.185     117.549     217.234     1206.03     26376.2     752.165     229.034     228.629      751.86     26531.4     1206.77     217.243     117.468     428.317     37415.3     2018.35     379.252     152.266     435.616     10714.2     2334.63      340.09     302.891      457.08     4480.46        6750     255.346     198.286     164.251     2117.72     21345.3     380.933     109.582     305.376     1368.33      210112     238.561     71.2908      399.84     813.367 1.00517e+06     401.301     240.912     127.491     307.465     23951.6     622.116     287.963     74.1418     338.552      7460.9     630.844     56.2943     86.4409      161.57        3501     1522.97
    136.723     65.7658     121.643     3.28401     8.68283      404.15     808.271    0.139526     25.3494     10.4339     38.0474     269.996     200.919  0.00226083   0.0371601      153.44     974.891     225.954     27.2538     29.0313     274.558      1043.5      16.066     12.7819     9.66432      160.11     121.347     34.7009      0.2117    0.158386     442.688     384.519     369.283     43.3358     113.866     171.232      216.49     33.6026     2.05713     80.5129    0.272832     171.126    0.151525     41.4126   0.0030986     10.8186     535.136     1207.33     14.2626    0.109077    0.115832     14.2935     1206.77     534.704     10.8495  0.00228109     41.2619    0.147384     171.162    0.251032     80.4362     2.12831     33.4058      215.85     171.351     114.049     43.4234     369.677     384.718     442.444    0.157662    0.206978     34.5815     121.289     159.849     9.58308     12.8761     15.6697     1043.34     274.822     28.8552     27.1458     225.478     975.552     154.062   0.0430977  0.00318413      201.21     270.402     38.3105     10.4907     25.5276    0.132883      808.38     404.148     8.69997     3.29272     122.149     65.9683     136.642
    44.8888     76.2837     19.0402     1.04559     14.7512     232.521    0.106024     4.89257     185.124    0.441583     39.4351     14.6698     4.17634   0.0651312     85.8444     66.0567     120.289     68.9745      50.201    0.094601     292.717     727.837     60.7421     28.8413     135.263     12.0602     4.39288     22.7862     46.5267     13.2583     4.71688     61.6075     4.19218   0.0143806    0.135765     123.559     87.2983     125.617     15.3016     1.48898     43.0919     23.9827     172.726     65.6691    0.178775     223.286     10.8713     217.583      1.9805     71.5971     71.5374     1.97878     217.243     10.8496     222.992     0.17492     65.6441     172.931     23.9647     43.4457     1.51038     15.3371     125.458     87.4135      123.48    0.130567   0.0177436     4.16642     61.3818     4.76407     13.2424     46.6404     22.7806     4.44531     11.9923     135.246      28.512      60.454     728.041     292.564    0.110243     50.2845     68.7718     120.429      66.172     85.6447   0.0814572     3.99578     14.6733     39.4159     0.44864      185.41     4.93999    0.106678     232.653     14.7437     1.04354     18.7381     76.1649     45.0639
    252.654     61.2467     76.4527     14.3342     1.64656     193.494     15.3274     2.03145     17.9406     236.844     29.3296     244.899     6.00056     18.2952    0.235151     5.68214      211.97     39.1135     4.33866     80.8704      3.7785     203.362     25.6946     202.525     4.60766     1.05237     20.7571    0.701939     48.7502     15.4333      1.2477     15.1872     40.0696     41.0915     65.8146     45.0644    0.871908     55.1148     61.7207      68.511       39.99     2.00426     63.0984     4.07331     61.7353     0.17101  0.00265859      117.67   0.0033432     36.8979      36.973  0.00187967     117.467  0.00228014    0.174919     61.6664     4.12378     63.4222     2.00812     40.1949      68.611     61.4725     55.0889    0.853641     45.1142      65.894     41.0421     40.1101     15.1201     1.25885     15.4924     48.6524    0.704382     20.6961     1.05492     4.47402     202.553     25.7173      203.31     3.76441     81.1315     4.36082     38.9855     212.713     5.68879     0.21499     18.2524     6.06276     244.831     29.2049     236.768     17.9824      2.0323      15.326     193.602     1.62096     14.3818     76.2462     61.3108      252.58
     437.01     350.054     16.6827     67.4299     1.10612     392.166     249.474     32.8467     3.38364      51.749    0.933291     154.664     128.421     26.4262     131.197      4.8591     868.056     173.657     119.554      1.8114     259.745     265.699      53.258     1.41334      52.599     24.4215    0.534206     237.915     65.3815     3.80151     25.3321     31.8064     10.4174     193.288     97.4711     56.0813     30.5824     132.498     22.5973     83.9865     4.12856     63.0181     60.3551     293.243      4.0787     65.6882     41.1601     428.135     69.7428     35.9262     35.8262     69.7807     428.317     41.2616     65.6442     4.12375      292.47     60.4844     62.7904     4.18765     83.9952     22.5294     132.366     30.6754      56.063     97.4085     193.285     10.3891     31.7228     25.3976     3.80048     65.0833     237.602    0.549156     24.3843     52.3238     1.45086     53.4138     266.088     259.367     1.78019     119.639     173.633     867.161      4.8192      131.23      26.608     128.286     154.652    0.945668     51.7677     3.44759     32.9686     249.479     392.047      1.1198     67.3964     16.5133     349.743     437.068
    1000.64     1873.82     44.8209     23.3002     58.1579     3.86644     49.1205    0.846892     4.84088   0.0922535     307.208     18149.5    0.148372      2.5538     4.65259     235.932     46569.4     20.6291     5.67525      72.884     192.741     2722.96     124.087      3.9117     58.0695     168.028     3780.68     1035.44     49.4321     82.0078     199.425     4083.12     2771.22     11.4385      65.759     11.3347     740.184     4783.16      68.771     57.6522     2.31655     108.514     8963.27     60.0361     63.1188     172.786    0.133897     37405.9     4.62489     135.906     136.206     4.75937     37415.3    0.147375      172.93     63.4221     60.4845     8951.21     109.239     2.31382     57.7158     69.1053        4790     741.828     11.3719     65.8658     11.4962     2769.07     4086.38     199.085     81.8855     49.3338     1034.98     3775.32     168.261     58.1059     3.98681     123.438     2707.89     192.401     72.8084     5.51298     20.4592     46560.9     235.141     4.63108     2.58568     0.14751     18160.1     305.813   0.0995141     4.75938    0.855727     48.9706     3.83755     58.1235     23.3666     45.0764     1878.63     1000.45
    22.7863      577.78     146.304     4.33934     108.259     328.429     161.366     161.761     11.4797      121.81     51.6106     494.651     74.5375     5.34548     8.93141     151.943     1401.04      164.08     81.4481    0.221354     166.204     1478.23     14.2016     100.993     8.70228     173.987     950.434      405.84     19.6596     9.41297     154.841     734.049     267.225     3.85092     34.8074     8.11506     596.066      353.52     110.818     64.3444     28.8929     734.537     109.418     62.7674     1.99905     23.8723     171.035     2018.93    0.700086     63.9735     63.8778    0.677944     2018.37     171.163     23.9647     2.00811     62.7908      109.24      735.24     28.7198      64.535     110.569     352.785     596.632     8.19449     34.7053     3.91732       267.5     734.349     155.248     9.41486     19.6354     405.828     950.128     173.906     8.87023     101.141     14.3821     1478.02     165.732    0.212169     81.5812     164.167      1400.3     152.941     8.94127       5.292     74.5784     494.859     51.4853     121.905     11.3946     162.329     161.229     328.504     108.495     4.32805     146.673     577.253      22.738
    174.264     12.0381     24.3848     3.58214     119.425     114.896      29.134     55.3875     80.1384     16.2842     36.4538     205.747   0.0263286     18.8119     9.12183     131.799     210.293     44.0778     3.97844     37.6667     127.041     308.582     130.557     6.86963     81.5911     1.68913    0.674085     26.3551    0.794022    0.036582     102.025     58.2741     160.342     148.622     40.5765      2.6301     13.4001     166.225     36.3666     9.45321     216.729     28.7855     2.28061     4.15769     40.1704     43.2468    0.275621     379.517     142.011     110.474      110.74     142.003     379.251    0.251032     43.4458     40.1946     4.18763     2.31379     28.7199     216.925     9.50375     36.5148     166.032     13.3825     2.64268     40.5509     148.458     160.413     58.3415     102.043   0.0373549    0.800196     26.6497    0.686457     1.73167     81.8578     6.96746     130.444     307.996     126.729      37.723     3.87322     44.2999     210.111     131.498     9.31486      18.779   0.0258993     205.567     36.7154     16.4113     80.2038     54.9073     29.2564     114.927     119.151     3.61432     24.4405     12.0558     174.382
     109.27     3.14948     77.8857     40.4741     5.03153     143.169     23.3168     6.89669    0.437558     73.0478     101.761     134.244     6.96504     21.8046     12.1548     4.55265     222.142     23.8742    0.431522     27.4661    0.174619     174.051     33.0976     57.2511     4.64624    0.199268     1.94972     43.5196     3.50357     47.5536    0.335494     77.6471     3.38184   0.0226517     116.925     52.2693    0.660219      66.191     35.6226     233.131     9.56819     64.5552     57.6895     83.9976      68.587     1.54157     80.6162     152.188     5.00043     19.9751     19.9922     5.00175     152.268     80.4364     1.51039     68.6111     83.9955     57.7158     64.5351     9.50369     233.532     35.4659     66.1976    0.668108     52.1728     116.907    0.021288     3.39093     78.1359    0.333496     47.5402      3.4773      43.357     1.97886    0.175811     4.57851     57.2069     32.9621     173.895    0.181195     27.7436    0.414472     23.7143     222.274     4.58108      12.341     21.8552     7.00116     134.036     102.134     73.1931    0.444585     6.86652     23.3464     142.948     5.01898      40.521      77.952     3.13324     109.252
     139.42      118.24     47.8482     62.3963     2.53004     165.932     257.843    0.252963     25.0425     26.7458     413.152     87.7963     12.1043     27.1139   0.0283506     20.8217     712.957     19.1139     2.24894     17.2259     47.1394     173.327     207.298     5.58367    0.469494     5.40403     17.7611     21.8649     11.6288     27.7174     23.3409     35.9187     68.6799     23.8869     264.015     120.543     18.3926     84.9851     268.482     35.3344     36.6558     110.424     69.2906     22.6607     61.8154     15.3198     2.13264     435.388     436.225     3.43496     3.43453     436.777     435.617     2.12833     15.3371     61.4727     22.5296     69.1051      110.57     36.5147     35.4659     268.583     85.0253     18.4095     120.468     264.426     23.9255     68.7517     35.7072     23.4073     27.7561     11.5533      21.811     17.5866     5.39338    0.463507       5.573     207.632     173.696     47.7031     17.3082     2.25569     19.2142     710.808     20.7765   0.0279153     27.3082     12.1725     87.8001     412.908     26.8135     25.0675    0.258547      257.43     165.894     2.52646     62.4825     47.8236      118.48      139.87
    1281.82     888.233      25.779     24.1805     39.2213     529.639     4.14181     79.9653     2.93613     21.4303     72.1134     3539.86     8.77116     18.4557     1.14415     529.884     10854.9    0.492798     3.15145     1.27264     421.869      4666.3     434.972     76.6932     93.7082     433.318     710.451     1330.25     86.3357     116.046     159.585     762.587     619.167     167.635     161.451     148.871      1667.9     3342.03      84.642     65.9783     166.076     352.419     4786.21     132.337     55.1208      125.63     33.0967     10713.3     116.369     179.002      179.02     116.707     10714.1     33.4059     125.458      55.089     132.366     4790.01     352.785     166.031     66.1973     85.0256     3343.52     1667.99      148.94     161.407     167.656     620.701     764.601     159.295     115.923     86.4437     1329.95       711.2     433.449     93.5801     76.9298     433.151     4660.24     420.737      1.3094     3.21578    0.437416     10856.5     527.736     1.11027     18.5264     8.88761     3537.12     71.6687     21.5032     3.00139     80.1378     4.07797     529.391     39.2134     24.1141      26.064     884.447     1280.78
    1584.81     236.231     0.48906     2.15876     245.009     1196.92       479.9     212.136     82.8038     157.478    0.420501     134.078     777.241      87.446     83.5124     251.864     2200.79     170.839     75.0253     116.939     198.418     3522.02     72.3615     100.897     76.7944     26.1145     2196.76     764.947     73.1347     8.28299     91.8024     41.2757     1600.71     84.6835      15.515     26.6348    0.388409      1666.4     18.0926    0.692368     13.4344     596.298     742.291     30.8463    0.861071      87.564     216.136     2336.05     245.849     107.904     108.012     246.208     2334.62      215.85     87.4142    0.853665     30.6756      741.83     596.631     13.3826      0.6681     18.4096     1667.99    0.393163     26.6772     15.5971     84.8131     1600.13     41.4739     91.5795     8.22537     73.0015     764.873     2197.28     26.0608      77.078     100.926     72.0268     3522.34     199.147     117.007     75.2302     171.091     2198.69     252.751     83.4559       87.64     778.362     134.432    0.463861     158.049     82.7901     212.454     480.286      1197.1     245.734     2.18919    0.468528     237.243     1583.79
    168.222     15.7846     27.4104     18.4568      13.696     119.644     91.2452     184.138     217.314     55.9745      6.3618     285.966     91.6512     9.64547     1.62413     59.8376     227.155    0.882736     42.7999     122.448    0.688325     312.289      73.272     7.68711     61.6523     5.09847    0.225434     89.1508     148.955     175.728     87.0281     99.0593     182.556     39.4298     7.84458     54.6651     26.5254     148.573     120.971     52.5537     2.57498     8.15668     11.2376      56.085     44.9782     123.452     171.236     340.006     68.6736     13.7025     13.8513     68.6611      340.09      171.35     123.481      45.114     56.0632     11.3718     8.19447     2.64269     52.1727     120.467      148.94     26.6773     55.0875     7.85951      39.517     182.937     99.0577     86.6551     175.499     149.107     88.9293    0.222829     5.06816     61.7112     7.81821     73.4166     311.832    0.713073     122.289     42.8124    0.884714     227.442     59.6627      1.5914     9.74489     91.3633     286.695     6.44082     55.7491     217.669     184.105     91.4385     119.495     13.7023     18.5414     27.7549     15.5598     168.258
     13.351     15.1533   0.0746001     29.6922     1.55232     40.9684     38.3724     19.4288     4.49596      77.739     22.4936     33.9346     23.7512    0.529789      108.13     29.3707      224.61     35.6607     12.2391     63.6048   0.0918007     149.265     184.781     101.954     6.58757      3.5587     67.7753     110.036     115.651     31.0602     11.9504     71.7292    0.319064     9.32824     118.584      7.8404      15.507     161.133      264.53     116.745     40.4615     34.6618     65.6735     97.3855     65.7781    0.130849     113.929     302.523     2.13765     54.2803     54.1722      2.1386      302.89     114.049     0.13057     65.8938     97.4079     65.8656     34.7052     40.5511     116.907     264.425     161.408     15.5971     7.85948     118.975       9.347    0.323768     71.3945     11.9092     31.0157     115.676     110.177     67.4836     3.53766     6.61027      102.16     185.474     148.808   0.0969256     63.3032     12.2304     35.7757     224.267     29.4459     108.142    0.518813     23.5901      33.994     22.6389     78.3418     4.65214     19.5271     38.4532     41.0017     1.54392     29.5214   0.0889373      15.086     13.3654
    11.5427     4.75934     46.6169     10.4737     1.59414     138.458     121.728     56.8542     14.2022     67.7646     426.948     177.476     61.9713     37.1029     48.9772     42.1558     499.978     68.4573    0.491855     19.9041     4.01054     129.532     134.931     170.177        3.34     141.561    0.134516     26.9222     25.4566     5.58168     112.026     10.4461     183.858     4.91364     9.34189     39.4243     84.8794     167.617     23.7701   0.0217959     148.732     3.93199     11.5353     193.106     41.0513    0.021226     43.3297     457.366      95.262     1.50403     1.51411     95.0676      457.08     43.4236   0.0177428      41.042     193.285     11.4961     3.91733     148.459   0.0212881     23.9254     167.656     84.8123     39.5169      9.3471     4.78329      183.79     10.4965     111.707     5.60258     25.5477     26.9547    0.133136     141.805     3.32188     169.974      134.79     129.234     3.93429     19.8588    0.500632     68.6808     499.668      42.182     48.8198      37.092     62.0877     177.474     427.107     67.8422     14.2255     56.6429     122.224     138.455     1.62109     10.4637     46.6473     4.78245      11.488
    321.381     1230.38     16.7979   0.0328314   0.0624172     81.8882     2055.23     50.4713     1.65052      4.0171     471.947      140.83     4.05719     23.3669     37.6217     4.03081     4600.84     195.901     0.30828     45.0806     145.563     2308.52     353.827     14.3296     0.68058     258.122     1088.91     121.196     49.1037    0.468159     106.277     1706.35     231.762      183.76    0.331547      182.51     1600.25     619.926     68.4307     3.38854     159.654     268.196     2769.66     10.3244     40.1351     4.14106      368.82     4482.09     53.6646     19.6238     19.4875     53.3607     4480.47     369.676     4.16641     40.1099     10.3891     2769.09     267.501     160.413     3.39092      68.752     620.699     1600.14     182.937    0.323776     183.789     232.337     1707.75     106.074     0.47032     49.1251     120.759     1087.26     258.274    0.668609     14.3761     354.763      2306.8      145.07     44.6642    0.303791     195.591     4601.74     4.18182     37.4504     23.4747     4.00263     140.725      472.89     3.95491     1.65317     50.9079     2054.33     81.8066   0.0614401   0.0445082     16.9851     1227.65     321.168
    1984.62     955.361     15.9116     41.5905     570.785      806.31      4322.2     210.598     74.2971     141.575     519.771     45.9756     186.527     110.711     84.6779     31.9129     4085.68     587.869     16.7043      192.54      80.133     6627.37     508.833     73.7143     132.385      27.841     2463.48     64.6596     185.563     129.532     116.853     1995.27     1708.64     10.4025     71.4062     99.5303     41.2422     767.323     35.4318      77.743      58.444     733.812     4086.57     31.4915     15.1457     61.5368     384.117     6746.68     29.9145    0.111353     0.10694     29.6291     6749.97     384.718     61.3817       15.12     31.7229     4086.42      734.35     58.3417     78.1365     35.7072     764.601     41.4736     99.0577     71.3941     10.4965     1707.76     1991.57     116.868     129.385      185.69     64.8319     2463.29     27.8025     132.458     73.6782     509.336     6627.99     79.7364     192.794      16.666      587.07     4082.56      32.569      84.563     111.084     185.746     45.5822     520.509     141.777     74.3189     210.163     4321.46     806.227     570.721     41.5135     15.7807     958.948     1985.89
     32.212     75.2974     65.2954     32.3215     249.352      59.529     193.075     7.97339     4.13822     15.5844     45.5306     158.598     652.583     4.14416     79.2072     23.5378     212.002     4.09986     18.5097     37.3815     85.3076     528.623     27.9216    0.985589     1.13171     226.258     2.00711     143.751     85.3768    0.692718     10.0649     116.812     106.189     111.994     11.8792     86.9391     91.8068     159.336     23.4034    0.322353     101.707     155.079     199.192     25.4885      1.2564     4.75141     442.418     255.295     1.26931     72.4888      72.515     1.29816     255.346     442.443     4.76404     1.25884     25.3977     199.083     155.247     102.043    0.333499     23.4073     159.295     91.5799     86.6548     11.9092     111.707     106.074     116.868     10.0375    0.700353     85.4849     143.827     2.00125     226.178     1.12942     1.02463     27.7596     528.798     85.1828     37.4426     18.6004     4.02385     212.679     23.7263     79.1462      4.0896     652.261      158.63     45.4619     15.4598     4.15958     8.03977     192.916     59.2752     249.609     32.3477     65.3083     75.0794     32.1113
    9.25795     16.4647     22.8089     1.49141     84.6301     19.0277     16.5464      77.505     1.43271     5.32275     4.75921     14.3009     30.2888     77.8906     133.764     4.29414     239.652     317.265    0.461883     2.26887     45.2941     142.769     360.534     54.7474     39.6962     182.458     86.5148     89.5558     7.06848    0.542214    0.683665     129.304    0.494171     5.55332     31.0127     175.825     8.26583     116.303     27.6552     47.4866   0.0379044     9.39031     82.1776     3.82802     15.4713     13.3069    0.160585     198.441     7.90288     42.4639     42.4346     7.86425     198.288    0.157666     13.2423     15.4924     3.80049      81.885     9.41493   0.0373557       47.54     27.7559     115.923     8.22539     175.499     31.0157     5.60253    0.470318     129.384    0.700364    0.571031     7.04718     89.6433     86.2048      183.03     39.6255     54.5398      360.91      142.01     45.1731     2.28781     0.45902     316.927      239.84     4.35087     133.577     78.0117     30.3317     14.1805     4.73696     5.32583     1.45201      77.292     16.8054     18.9781     84.7473     1.46665     22.7042     16.3945     9.28287
    10.0264     60.2223     154.916    0.817307     110.995     9.84852    0.786229      124.42    0.529266     36.1407     24.3587     27.2558    0.158843    0.544922     63.6089     189.377     223.545     66.2956     71.0467     1.34846    0.664567     539.728     5.81119    0.130576     15.1102     26.2867     17.1815     3.10851     229.416     6.99049     85.2187     185.536     49.2928     25.3698     115.545     149.023     73.1711     86.7653      11.675     3.48631    0.806289     19.6871     49.3153     65.2422     48.5429     46.6869    0.204899     164.525     6.18722     24.2432     24.0866     6.25846      164.25    0.206975     46.6404     48.6524     65.0835     49.3335     19.6354    0.800211     3.47729     11.5534     86.4438     73.0016     149.107     115.676     25.5478      49.125      185.69      85.485     7.04715     228.841     3.08841     17.2294     26.4397     14.9904    0.125569     5.85779     540.018    0.620931     1.30102     71.3699     66.3487      224.49     189.734      63.666    0.544735    0.171589     27.3248     24.5951     35.8511    0.566228     124.327    0.817931     9.77449     111.122    0.832647     154.916     60.1568     10.0348
    671.484     808.296     21.5829     41.3422     11.4304     320.122     297.107     33.3811     76.1951      43.923     455.157  0.00337923     65.8897      5.5624     6.35631     318.122     2514.45     50.1055     16.9628     103.144     90.1982     1288.93     637.018     2.99232     279.148     1.98855     1006.42     140.411     3.12164     89.9983      143.72     64.7876     121.675      26.969     110.376     88.9412         766     1329.59     21.7278     43.3854     26.3696     406.534     1034.65     237.449    0.701059     22.7937      34.379     2116.43     473.195     1.21499     1.25375     473.933     2117.72     34.5814     22.7804    0.704387     237.603     1034.98     405.829     26.6497     43.3568      21.811     1329.95     764.873     88.9296     110.177     26.9546     120.759      64.832     143.827     89.6431     3.08841     140.722     1006.89     2.01249     278.971      3.0313     636.828     1289.13     90.2167      103.46     16.9624     50.4468      2514.4     317.519     6.22459     5.57137     66.0804 0.000463879     455.619      43.817     76.6472     33.2882     296.348      319.88     11.4438     41.5082     21.7348     808.742     671.042
    4501.78     1.51289     17.7142     10.7089      30.619     1360.83     9358.25     111.742     1.15522     77.7239     234.619     13036.5     216.122     19.7532     103.926     4.11632     10883.4     405.591     31.4325     14.4709     7.64703       18605     569.315     2.29696     4.84696     1.20812     9632.34     1005.59     17.2464     86.4532     1.97124     2467.07     1084.98    0.149754     67.7143     0.21217     2199.34     714.651     17.3747     1.92069    0.779453     949.631     3766.68    0.569824      20.702      4.4071     120.841       21352     48.4581     41.8684     41.7559     48.1935     21345.2     121.289     4.44536     20.6963      0.5492     3775.32     950.123     0.68646     1.97886     17.5865     711.198     2197.29    0.222831      67.484    0.133134     1087.26     2463.31     2.00125     86.2048     17.2295     1006.88     9624.09     1.14768     4.70566     2.35534     567.066     18585.5     7.57863     14.4856     31.3427     403.739       10882     4.28256     103.355     19.8342     216.436     13031.1     235.056     77.6302     1.16929     110.733     9351.11      1361.1     30.6549      10.648     17.6109     1.24345     4499.59
    4.89699     74.9596     105.652     246.306     26.1047     104.557     331.159      337.42     28.3442   0.0549708     52.0585     411.894     2.90213     75.2106     6.97004     146.093     378.744     241.275     17.5208     9.83511     156.842     208.425     156.775      15.536     10.8027     57.5398     1.17337     2.01995     26.3896     182.607     226.997     27.9166     257.419     142.329     3.51443     5.08879     26.1675     433.845     5.23445    0.188696     1.76477     173.793     167.746     24.4202     1.04088     12.0987     160.058      380.55     9.89708     86.0704     85.9291      9.9479     380.932     159.849     11.9923     1.05493     24.3842     168.262     173.906     1.73167    0.175814     5.39339     433.451     26.0609     5.06817     3.53762     141.805     258.276     27.8023     226.179     183.029     26.4396     2.01251     1.14767     57.5786     10.7229     15.7185     157.052     206.981     156.562      9.7396     17.6244     240.605     378.942     145.435     6.98515     75.3298      2.9337     410.786     52.2369   0.0315529     28.2301     335.877     331.085     104.366     25.9438     245.791     105.793     75.1745     4.93108
    21.1181     67.6762     37.5754     6.97843     36.8748      0.3469    0.278078     1.02075     64.7443    0.208017     13.1458     130.458    0.948472     22.0711     8.73916     13.0815     272.351     116.228     191.662     363.059     44.8111      52.552     293.265     1.37524     10.6313     10.8025     4.67541     278.662     15.1692     39.7467     1.14411     132.321    0.694396     3.30981     6.61515      61.646     76.8999     93.6538     0.46049     4.51207     81.8156       8.724      58.105     52.3414      4.5106     135.505     9.60175     109.618     10.8854     59.8947     60.2412     10.8787     109.581      9.5831     135.245     4.47403     52.3237     58.1057     8.87032     81.8575     4.57851    0.463504     93.5799     77.0785     61.7112     6.61033      3.3219     0.66861     132.458     1.12942     39.6257     14.9904     278.971      4.7057     10.7229     10.3057     1.42114     292.551     52.4886     44.7631     362.941      191.58     116.285      271.56     13.2543     8.89661     22.0534    0.955984     130.184      13.102     0.20565     64.9233     1.09108    0.244253    0.356163     36.7851     7.08539     37.4735     67.7176     21.1868
 0.00327801     1.65899     10.6017   0.0192321     38.9646     1.17725     9.30995     13.2352     53.9426     50.5463     5.91278     45.8289     15.5723     152.053     14.6246     52.0189     180.037     20.8225     37.3168      109.93     79.1526     331.291     28.1417     125.331     1.48144     15.4744     2.29482     2.97546    0.121696     54.5373     1.01494     73.6262     14.2599      169.85     102.051     7.80666     100.998     76.7707     5.59276      57.309      6.9414      100.98      3.9843     1.43661     202.672     28.4413     12.8663     305.673      59.499     36.1443     36.1044     59.4838     305.375     12.8762     28.5121     202.553     1.45085     3.98678     101.142     6.96747     57.2071     5.57297     76.9296     100.926     7.81819      102.16     169.973     14.3761      73.678     1.02463       54.54    0.125571      3.0313     2.35532     15.7186     1.42116     125.342     28.0627     332.228     79.3664     109.247       37.59     20.7557     180.435     52.1796     14.4996     152.291     15.5822     45.9022     5.81424      50.582      54.189     13.0893     9.33151     1.17103     39.2589   0.0159391     10.6294     1.58195  0.00412021
    6.84179      387.45     97.7586     129.313     51.4954     335.117    0.102999     29.5534     3.36216     2.38328     905.873   0.0771911     129.599     28.1356     22.5861     318.875     1318.88       297.3     9.38664      69.118      1.5062     1046.54     567.713     28.2362     294.831      156.11     567.103     636.055     5.73898     360.915      27.554     508.944     354.508     135.103     184.729     73.8576     71.6585     433.796     207.527     33.0639     130.106     14.5038     123.258     53.2674      25.679     60.3522     15.5727     1367.78     205.575     9.13707     9.19767     205.157     1368.33     15.6697      60.454     25.7173     53.4139     123.438      14.382     130.445     32.9623     207.632     433.149     72.0266     73.4166     185.474      134.79     354.764     509.334     27.7596     360.908     5.85783      636.83      567.07     157.052     292.552     28.0626     568.085     1047.43     1.59881     68.8338     9.14329     298.646      1319.4      318.59     22.5472     28.1432     129.966   0.0726712     903.954     2.44782     3.47218     29.7196    0.116603     334.592     51.1495     130.109     97.9572     387.764     6.83662
    3669.44     522.595     155.865     88.1248     285.199     2073.21     181.827     123.669     24.4296     49.8271      1107.4     16647.4     472.846     61.4363     43.7535     453.201      139442       676.7     79.2093     91.9268     265.304     13062.9     1044.26     331.383     52.1672     207.662     18595.4     1287.79     540.326     142.143     528.515     6622.14     2302.79     129.189     149.312     312.413     3522.68     4652.74     173.779     174.252     307.381     1477.82     2692.46     265.846     203.756     726.267     1042.54      210021     412.232     375.334     374.897     412.381      210112     1043.35     728.042      203.31     266.086      2707.9     1478.02         308     173.895     173.696     4660.23     3522.34     311.832     148.809     129.235     2306.81        6628     528.798      142.01     540.018     1289.14     18585.5     206.981     52.4884     332.228     1047.43     13170.6     266.551     92.7301     79.2044     677.526      139252     453.816     44.0087     61.6145     473.195     16612.5     1109.86     49.6071     24.1224     123.597     181.895     2072.97     285.091     88.1483       156.9     524.274     3668.61
    207.999     470.756     50.5729     141.178     38.2468     169.861     406.753     56.6862    0.122384     134.268     5.11369       364.2     36.4323     81.9792      27.516     268.493     487.137    0.547376     121.751    0.399814     7.28453     266.786     1.62555     79.3531     44.9276     156.812      7.6674     90.8561    0.625838     45.3165     85.1787     79.9763     145.193     3.99568   0.0908299    0.696358     199.026     420.908     47.7696    0.170034      127.32     165.654     192.529     259.265     3.75566      292.45     275.118     238.252     259.668     74.9186     74.7663     259.543     238.562     274.822     292.566     3.76443     259.367     192.402     165.732     126.729    0.181192     47.7032     420.736     199.147    0.713068   0.0969312     3.93432      145.07     79.7365      85.183     45.1733     0.62092     90.2164     7.57865     156.563     44.7631     79.3663     1.59881      266.55     7.69904    0.402269     122.273    0.534841     486.987     269.328     27.6302     81.8401     36.4358     364.066     5.20496     134.686    0.122385     56.5843     406.601     169.859     38.4006     140.827     49.7464     471.356     207.836
    56.8381     19.6766     77.0997   0.0441359     8.15494     187.842      7.1879     50.3879     39.0154     96.6554     121.491     105.047     0.38377     293.623    0.405054     24.4191     211.518     13.4533     12.8894     15.2199    0.419112     92.7512     68.7868     109.523     363.391     9.89432     14.3561     103.181     1.26386     2.25411     37.4614     192.117      44.922     19.9503     63.5242     122.356     117.109     1.30132     17.1394     27.7345     37.6173    0.212572     73.2452     1.77519      80.874    0.103081     28.9981     71.1207   0.0478391     82.7837     82.7161   0.0465434     71.2904     28.8552    0.110241     81.1316     1.78019      72.808    0.212167     37.7233     27.7437     17.3082     1.30941     117.007      122.29     63.3034     19.8588     44.6643     192.793     37.4426     2.28781     1.30102      103.46     14.4855      9.7396     362.939     109.247     68.8335     92.7296    0.402273     15.5059     12.8601     13.3494     211.823     24.3198    0.396718     293.541    0.401408     104.996     121.331     96.4467     39.2245     50.3026     7.29411     187.603     8.13049   0.0533931     76.9304     19.4592     56.8082
    27.7594     9.46404     14.7056   0.0601338       2.686     91.3344     101.245     15.9546     85.5149     34.6462    0.199671     70.0691     3.29771     19.9294     141.315     16.9864     232.347     59.2792     215.347     12.9751     121.003     79.0277     9.16763     37.1823     191.344     17.6526     31.6113     16.9886     71.5431     0.45253     18.4221     16.7929    0.287605    0.502773     12.0692     42.6742      75.129      3.2179     2.23696    0.410233     3.81507     81.5076     5.63243     119.739     4.29751     50.1674      27.104     399.891     2.16765     106.803      106.64      2.1607     399.841     27.1458     50.2844     4.36082     119.639     5.51302     81.5812     3.87324    0.414479     2.25566     3.21577     75.2299     42.8122     12.2303    0.500629    0.303795      16.666     18.6003    0.459024     71.3697     16.9624     31.3427     17.6244     191.579       37.59     9.14329     79.2038     122.273     12.8601     213.919     58.9694     231.979     17.1421     140.978      19.874     3.24936     69.9477    0.168926     34.9238     85.4864     16.2046     100.994     91.4075     2.65104   0.0707705     14.4122     9.55104     27.6351
    224.722     5.92288      12.894     92.3177     5.77105     5.20993      72.158     115.412     16.8336     57.3385     75.5619     34.3125     4.70949     38.7789     5.03622     96.1783     761.035     33.6002      59.396     13.7433    0.480675     677.055     298.069     20.7677     116.405     240.012     403.568     50.5657     66.1348     316.028     4.10312     586.326      195.82     68.5538     35.9027    0.893555     170.934    0.461667     19.3256     23.5642     44.2688     163.773     20.3768     173.745     38.8063     68.9819     225.271     813.706     155.963     41.9125      41.791     156.177     813.369     225.478     68.7719     38.9855     173.632     20.4592     164.167     44.3002     23.7144     19.2141    0.437415      171.09    0.884714     35.7758     68.6813     195.592     587.069     4.02384     316.926     66.3486     50.4469      403.74     240.605     116.286     20.7557     298.647     677.527    0.534844     13.3493     58.9695     33.2634     762.861     95.6395     5.08412     38.0138     4.62249     34.7225     75.5451      57.464     16.8694     114.774     71.9372     5.14952     5.69874     92.2476      12.932     5.78165     224.787
     232.86     4718.93     296.811     100.845     72.2864     204.452     15587.4     408.204     202.874     142.779     261.376     80668.4     501.835     240.234     179.608     434.778 2.09954e+06       758.2     233.077     211.964     487.084      138763     1318.45     180.243     273.091     378.106     10869.8     2515.05     223.338     240.396     212.296     4078.17     4603.39       499.8     223.645      227.36     2194.46       10859     711.939       221.4     210.262      1399.2     46576.2     867.031     212.068     120.478     975.345 1.00492e+06     945.348     156.308     156.613     945.778 1.00517e+06      975.54     120.429     212.713     867.168     46560.9     1400.31      210.11     222.275     710.811     10856.5     2198.68     227.442     224.269     499.677     4601.76     4082.55      212.68     239.838      224.49     2514.39     10881.9     378.941     271.559     180.436      1319.4      139252     486.989     211.822     231.978     762.861 2.10947e+06     435.998     180.821     244.376     501.074     80733.6     261.324     144.665     204.405     411.836     15584.5     204.623     72.4517     101.046     298.655     4737.66     233.118
    649.094     180.444     62.9373     14.5656     165.716     78.7626     625.357     71.9169     22.0504    0.129786     92.4032     450.511     126.459     9.74622     15.7507     595.753     436.315     95.5817     17.0317     24.4709     268.645      452.48     318.706     52.2312     13.1991     145.744      4.2192     316.333     189.442     4.27418     23.7218      32.376     4.20704     42.2379     29.3069     60.3516     251.953     526.694     20.6317     4.57805     131.247     152.337     235.039     4.84736      5.6982     65.9199     153.784     400.878     324.991      2.0475     2.09335     325.782       401.3     154.062      66.172     5.68879     4.81917     235.141     152.941     131.498     4.58108     20.7766     527.737     252.752      59.663     29.4458      42.182     4.18181     32.5692     23.7263     4.35082     189.734     317.519     4.28265     145.434     13.2542     52.1801     318.589     453.816     269.328     24.3199     17.1421     95.6394     435.998     592.975     15.5933     9.80857      125.91     451.287     92.4125    0.141249     22.1511     71.8492     624.517     78.8868     165.547     14.5069     63.3013     180.269     650.432
    175.417     29.2333     2.65761     14.8355     41.7222     466.733     122.518     80.7657     148.806    0.618464     103.916     129.589     0.48522     21.0954     209.944     15.7092     180.471     5.09222      140.48    0.411672     27.4683     43.4648     22.6089      14.458     8.75611      6.9749     103.224     6.34706     63.5118     133.618     79.3647     84.3369     37.6591      48.908     107.766      1.5316     83.6156     1.14135    0.020257     12.1623      9.2847      8.8999     4.64988     131.193    0.219247     85.6495   0.0375869     240.853   0.0731116     113.045     112.785   0.0694853     240.912   0.0430974     85.6443    0.214995      131.23     4.63114     8.94131     9.31491     12.3411   0.0279152     1.11025     83.4558      1.5914     108.142     48.8194     37.4506     84.5629     79.1465     133.577     63.6658     6.22463     103.355     6.98513     8.89657     14.4995     22.5472     44.0085     27.6304    0.396718     140.978     5.08413     180.822     15.5933     209.212     21.0895    0.467672     129.907     103.484    0.602112     148.746     80.7516     123.081     467.327     41.7035     14.9058     2.64324      29.361     174.764
    16.2865   0.0538338      18.082     29.6406      2.9924     162.641      30.576     25.5049      3.5495     40.0715     36.6088     48.9625     16.9316     213.048     20.9789     9.79583      245.62     38.3345     19.9899      292.12     81.7997     61.1641     28.0653     152.421     22.0835     75.4355     19.7364     5.60941    0.572134     77.9956     4.09823     110.665     23.4272     37.2882    0.518667     9.79182     87.6094      18.453     27.2497     21.9303     18.8315      5.3252     2.60851     26.6444     18.2141   0.0775982   0.0033764     127.248       2.086     133.658     133.864     2.12045      127.49  0.00318428   0.0814578     18.2524     26.6081     2.58567     5.29203      18.779     21.8553     27.3081     18.5263     87.6398     9.74484    0.518807      37.092     23.4748     111.085     4.08955      78.012    0.544727      5.5714     19.8343       75.33     22.0535     152.291     28.1433     61.6143     81.8402     293.542      19.874     38.0136     244.375     9.80862     21.0894     212.059      16.784     48.7829     36.1551     40.2572     3.47814     25.3617      30.641       162.5     3.07512     29.6359     18.2283   0.0524182     16.3367
    160.969      311.91     317.296     3.01348     8.09772     14.8599      158.61      58.049     28.7495      17.667     136.599       60.76    0.692024     17.0308    0.505848       125.5     499.385     4.67283     3.27869    0.374587     36.1901     473.778     129.567     15.5919     1.04656      2.9769     216.045     65.8711    0.163966      30.189     653.379     186.289     4.11099     61.7636     23.6483     91.3222      777.72     8.80798     12.0478     6.96682   0.0256976     74.9297    0.145432     128.279     6.05342     4.09017     200.872     307.669     290.418     16.1803     16.2253     291.004     307.464     201.209      3.9958     6.06274     128.285    0.147516     74.5783   0.0258993     7.00115     12.1725     8.88751     778.359     91.3637     23.5901      62.088     4.00263     185.745     652.264     30.3316    0.171591     66.0804     216.436     2.93371    0.955986     15.5822     129.967     473.195     36.4357    0.401408     3.24939     4.62246     501.073     125.911    0.467672     16.7841    0.699204     60.7025     137.241     17.6206     28.8256     58.1607     158.451     14.9152     8.02969     2.99852     319.623     312.973     161.438
    1459.81     1916.95     5.91005     35.5902      14.903     1182.05     9367.81     134.623     129.739     128.341     617.622     2796.26     60.7619     48.6276     129.262     451.978     80718.9     33.9533     69.5338     105.186     365.466     16559.6    0.125244     46.0543     129.511     411.444     13028.1  0.00684185      27.046     14.1004     159.347     44.8415     140.523     177.247     33.7782     285.881     135.338     3543.29     87.4819     134.187     207.239     496.065     18128.5     154.085     244.676     14.6392     270.416     23925.3      348.31     142.893     144.284     347.698     23951.8     270.402     14.6734      244.83     154.652     18160.2      494.86     205.567     134.036     87.7997     3537.12     134.431     286.694      33.994     177.475     140.724     45.5818     158.629     14.1804     27.3247 0.000464225     13031.1     410.786     130.184     45.9021   0.0726751     16612.5     364.068     104.996     69.9476     34.7228     80733.2     451.286     129.907     48.7831      60.702     2786.27     616.698     129.116     130.347     134.835     9368.65     1182.37     14.9668     35.4692     5.97245     1912.98     1459.39
    400.322     26.6708     209.555     10.9371     78.4215     529.208     775.197     4.83407     70.9334     148.273     1050.56     616.375     137.783     36.1676     103.526     92.8099     261.726     75.2413    0.156351     122.425     5.29168     1107.32     903.531     5.78517     13.0542     52.4856     235.216     456.231     24.5068     4.68121     45.4664     520.409     471.504     426.898     22.4987     6.41585    0.461982     71.3277     412.766     102.226     36.6444     51.8253     305.695    0.918122     29.0645     39.4029     38.1323     622.675     311.557     13.0102     13.0144     311.806     622.114     38.3107     39.4159     29.2051    0.945681     305.812      51.485     36.7153     102.134     412.909     71.6687    0.463852     6.44082     22.6386     427.107      472.89     520.507     45.4619     4.73699     24.5951     455.618     235.055     52.2372     13.1021     5.81427     903.952     1109.86     5.20492      121.33    0.168932     75.5452     261.329     92.4127     103.484     36.1553     137.239     616.699      1053.2     148.548      71.398     5.02678     774.575     529.379     78.0684     10.7992     210.356     26.5101     401.385
    113.623     51.1257     14.6756    0.294059     144.712     211.828     36.9772     10.8097    0.714216     61.8747     148.632     129.112     17.6001     39.7555    0.603798    0.140998     145.052     57.3407      34.674     97.1685     134.226     49.5057      2.4099     50.5955    0.223646   0.0590457     77.9359      43.686     35.8664     5.41713     15.4976     141.984     3.93765     68.0483     77.7081     55.7623     158.072     21.6101     26.7748     73.5176     16.4571     121.673   0.0992279     51.8034     236.889    0.432543     10.3455     288.049     93.4083     45.4767     45.3649     93.1105     287.963     10.4906    0.448637     236.766     51.7677   0.0995162     121.905     16.4113     73.1928     26.8134     21.5031     158.049     55.7491     78.3419     67.8422     3.95494     141.777     15.4597     5.32584     35.8512      43.817     77.6299   0.0315508    0.205651     50.5822     2.44784     49.6075     134.685     96.4471     34.9237     57.4639     144.665    0.141245     0.60211     40.2573     17.6205     129.116     148.549     62.0226      0.7188     10.9052     37.3146     211.757     144.397    0.283916     14.7622     51.3712     113.769
    17.4454     10.5609     38.4765    0.308512     2.80836     16.3178     1.04755     5.63856     64.3056    0.727897      71.614     130.172     29.0069      3.4448     148.422     22.2998     204.728      16.886     85.4198     39.1967    0.114163     24.2283     3.45792     54.2771     64.7226     28.1756     1.19393     76.2951    0.548019     1.45907     4.07328     74.2613     1.68798     14.2673     4.61738     217.419     83.3057     3.01214       24.98    0.416892      79.896     11.3835     4.78099      3.3729     17.9283      185.63     25.6506     74.0226     45.8294     26.4746     26.4778     45.6974     74.1419     25.5276     185.409     17.9823     3.44761     4.75942     11.3945     80.2034    0.444587     25.0674     3.00138     82.7899     217.669     4.65213     14.2256     1.65314     74.3191     4.15958     1.45202     0.56623      76.647      1.1693     28.2302     64.9232     54.1889     3.47222     24.1222    0.122386     39.2243     85.4865     16.8693     204.407      22.151     148.745     3.47813     28.8255     130.347     71.3983    0.718809     65.0949     5.44916     1.04885     16.2867     2.70895    0.287129     38.4637     10.5682     17.3476
     103.94     126.354     22.8749     155.861     184.871      225.09     215.216     236.133     5.46296     10.9314     5.11301     135.344     58.3251     25.4572     80.5788     71.3858     411.541     114.872     15.8771      50.274     56.7582     124.108     29.5994     13.1671     1.06291     335.996      110.93     33.2398     124.435     77.1164     7.92532     209.946     50.8148     56.6047     19.4333     184.178     211.775       79.89    0.256734     6.97199     54.8863     162.541     0.83561     32.8522     2.04057     4.97058    0.126907     337.812     4.25096     94.7867     94.6936     4.29748     338.554    0.132881     4.93995     2.03229     32.9686    0.855734      162.33     54.9071     6.86651    0.258546      80.138     212.454     184.105      19.527     56.6429     50.9078     210.162     8.03983     77.2921     124.327     33.2882     110.734     335.878     1.09107     13.0895     29.7195     123.598     56.5841     50.3026     16.2046     114.774     411.836     71.8492     80.7516     25.3617     58.1608     134.834      5.0268     10.9051     5.44916     235.703      214.29     225.501     185.425     156.123     22.8044     125.609     104.409
    1571.27     2051.41     104.567     22.9029     16.6508     318.353     4966.44      215.38     1.04851     37.3287      775.82     9361.44     157.885     30.9553     123.375     623.299     15588.9     71.1782     101.753     7.05731     407.092     184.466    0.062548     9.36061    0.276508     330.245     9354.94      298.12    0.799398     16.7326     192.916     4322.57     2056.26     121.863     38.3556     91.7728     479.125     3.92688      256.79      23.393     29.2507     161.767     48.1989     249.112     15.3843    0.123886     809.374     7457.13     449.742     1.61276     1.59873     449.792     7460.91     808.379    0.106682     15.3262     249.479     48.9706     161.229     29.2563     23.3464      257.43     4.07787     480.288     91.4391     38.4533     122.224     2054.33     4321.47     192.916     16.8055    0.817913     296.349     9351.11     331.085    0.244248      9.3316    0.116617     181.896     406.601     7.29405     100.994     71.9369     15584.5     624.518     123.081     30.6411     158.451     9368.66     774.579     37.3147     1.04885      214.29     4977.37      317.55     16.7511     22.9439     104.595      2059.3     1571.21
    504.539     1216.22      158.11     44.7401     118.424     215.705     318.355     225.331     16.3422     212.432     530.124     1182.55     14.7496     162.417     466.571     79.1329     204.776     5.30589     91.4881      187.93     169.521     2072.04     334.251     1.12675    0.326001     103.866      1359.6     320.622     9.84967     18.9697     59.2248      806.89     82.2395     138.569     41.1568     119.476     1198.34     530.475     166.623     143.128     115.436     328.835     3.80046     392.096     193.564     233.082     404.117     631.492     81.3498     118.457     118.627     81.5997     630.843     404.146     232.653     193.602     392.048     3.83751     328.505     114.927     142.948     165.893     529.389      1197.1     119.495     41.0016     138.454     81.8068     806.225     59.2756     18.9781     9.77452      319.88      1361.1     104.366    0.356178     1.17103      334.59     2072.97     169.859     187.603     91.4071     5.14955     204.627     78.8866      467.33       162.5     14.9152     1182.37      529.38     211.756     16.2867     225.501     317.548      214.79     118.367     44.5586     157.981     1214.84     504.475
    22.4892     2.05814     186.448     61.0552     1.67845     118.424     16.6508     184.602     2.69168      144.62     78.4395      14.766       8.116      3.0365      41.679     165.428     72.2696     5.84505     2.72394      8.2153     38.3223     285.061     51.6584     39.4296     36.6225     26.1406     30.7217     11.4993      111.06     84.8111     249.176     570.813   0.0631618     1.61665      1.5925     13.8491     244.565     39.2394     2.55503       5.015     120.127     108.526     58.2116     1.16086     1.60054     14.5571     8.72426     56.2068     105.345   0.0719512   0.0718587     105.214      56.294     8.69998     14.7437     1.62097      1.1198     58.1238     108.494     119.151     5.01899     2.52645     39.2133     245.734     13.7022     1.54391     1.62109   0.0614443     570.721      249.61     84.7475     111.121     11.4439     30.6549     25.9438     36.7849     39.2588     51.1495     285.093     38.4005     8.13049     2.65105     5.69875     72.4523     165.547     41.7033     3.07512     8.02963      14.967     78.0686     144.397     2.70895     185.425      16.751     118.367     1.64909     60.7731     186.378     2.00922     22.2219
    32.1891 6.48637e-06      68.102     4.08091     61.0554     44.7403     22.9029      155.93    0.278353    0.302012     10.9181     35.4604     3.04617     29.5126      14.799     14.6373     100.991     92.6586   0.0821742   0.0453982      140.95     87.9736     130.215   0.0164154     6.88008     246.085     10.6896      41.378    0.807355     1.45919     32.2466     41.3263   0.0484237     10.4941     29.7474     18.5693     2.15683     24.1229     62.4996     40.4701      3.5799     4.35136     23.3652     67.3683     14.3402     1.04256      3.2895     86.3893     16.2955     5.22906     5.22801     16.2147     86.4406     3.29274     1.04353     14.3818     67.3963     23.3665     4.32801     3.61429     40.5209     62.4823     24.1142      2.1892     18.5414     29.5216     10.4637   0.0445073     41.5131     32.3476     1.46665    0.832658     41.5082      10.648     245.791     7.08539   0.0159375     130.109     88.1483     140.827   0.0533924   0.0707698     92.2472     101.046     14.5069     14.9058     29.6359     2.99855     35.4688     10.7992    0.283913    0.287126     156.123     22.9439     44.5586     60.7728     3.78033     68.0351  0.00179628     31.8159
     162.71     109.293     182.832     68.0319     186.528     157.163     105.218     22.5038      38.571     14.7503     210.041     5.99903     318.161     17.9653     2.70659     62.4123     296.442     12.9269     14.5369     77.2088     50.3887     156.356     97.9347     10.5539     37.4742     106.013     17.5102     21.5874     154.681     22.7842     65.5851     15.5483     17.0208     46.7092   0.0746231      27.628    0.465162     25.9331     47.7628     78.0742     24.0328      146.07     45.1989     16.6128     76.1533      18.799     122.308     161.467     54.7181 5.00389e-05 0.000508821      54.581      161.57      122.15     18.7381     76.2463     16.5133     45.0764     146.673     24.4405     77.9522     47.8237      26.064    0.468514     27.7548   0.0889342     46.6474      16.985     15.7807     65.3081     22.7041     154.916     21.7349     17.6108     105.794     37.4734     10.6293     97.9574     156.901     49.7463     76.9309     14.4122     12.9319     298.653     63.3009     2.64323     18.2283     319.622     5.97241     210.356     14.7622     38.4637     22.8046     104.594     157.979     186.379     68.0347     183.521     110.016      163.12
    1387.94     1079.56      110.02  0.00390392     2.05689     1215.44     2058.83     125.567     10.7001     51.3568     25.9765     1912.81     312.426   0.0478856     29.4461     180.941     4740.99     6.05351     9.53151     19.0582     471.333     528.429     388.676     1.58617     68.2784     74.7128      1.2164     807.003     60.3825     16.3006     74.9551      960.53     1228.12     4.82068     15.2342     15.5226     238.511     886.307     118.055     3.17177     12.0838     576.064     1876.98     350.482     61.3068     76.3347     66.5781     3501.39     377.899     282.508     283.209     378.095     3500.98     65.9685     76.1648     61.3106     349.743     1878.63     577.251     12.0558     3.13324      118.48     884.451     237.242     15.5598     15.0861     4.78245     1227.66     958.947     75.0795     16.3945     60.1568     808.738     1.24341     75.1744     67.7177     1.58195     387.766     524.278     471.358     19.4592     9.55097     5.78163     4737.63     180.269     29.3611   0.0524151     312.972     1912.97     26.5102     51.3709     10.5682     125.608      2059.3     1214.84     2.00921  0.00179618     110.016     1082.49     1388.75
    558.712     1388.01     163.655     32.1892     22.4892     504.537     1571.28     104.794     17.3266     113.482     402.299     1456.43     161.351     16.1599     175.849     647.686     232.113     225.973     27.2718     56.7854      206.74     3670.68     6.65158  0.00129658     21.2337     4.91134     4504.74     672.317     10.1833     9.28298     32.4094     1983.23      320.34     11.6007     13.6305     167.875     1584.34     1280.22     140.568     109.717     174.309     22.6437     1003.15     437.789     252.804     44.7752     136.438     1523.58     517.371     109.996     110.198     517.503     1522.98     136.643     45.0639     252.581     437.066     1000.45     22.7381     174.382     109.253     139.871     1280.79      1583.8     168.258     13.3655      11.488     321.166      1985.9     32.1112     9.28288     10.0348     671.043     4499.59     4.93105     21.1869  0.00412102     6.83664      3668.6     207.835     56.8086     27.6352     224.786     233.117     650.433     174.764     16.3368     161.438     1459.39     401.385      113.77     17.3476      104.41     1571.22     504.472     22.2221     31.8159     163.119     1388.75     555.489
