wavelength: 632.8 R: 400 r0: 10 LinSpaced num: 100 100
    10.9488     23.2447     5.10566      2.7766     2.34181      8.6106   0.0526279     122.728     1.53736     141.628     2.10732     115.548      8.7453     24.3855     74.4066     18.9913     21.3638     36.0659     3.05148     3.84458     23.1195    0.909946     34.7412     2.80927    0.231068     70.9072     107.525      2.9333     85.0599     124.593     52.2515   0.0275848     44.3936     157.948     40.7225     17.3118     2.28697     155.838     34.8802     5.53852     69.1591      29.323    0.046311     4.88157     220.992     8.53801     1.48313     46.3052     22.0669      108.33     108.329     22.0665     46.3051     1.48325     8.53771     220.996     4.87856   0.0462819     29.3228     69.1582     5.53898      34.881     155.839       2.287      17.312     40.7226     157.941     44.3953   0.0275808     52.2526     124.593     85.0615     2.93361     107.526     70.9097    0.231074     2.80915      34.744    0.909497     23.1181     3.84528     3.05174     36.0667     21.3617      18.992      74.406     24.3857     8.74566     115.544     2.10787     141.626     1.53771     122.728   0.0526812     8.61071     2.34287     2.77661     5.10521     23.2445     10.9455
    23.2447     207.849     117.171     183.216     20.1531     3.84548     30.5433     34.8098     57.1154     10.0237      1.7927     10.3173     15.6788    0.015582     88.5345     63.8176     12.1522     88.0431     4.39649     69.2757     26.9002     24.8302     42.9975     2.84387    0.542607     1.05795     4.71125     14.4001      37.076     77.7633      16.284     60.7562    0.986726      205.56     172.803      123.88    0.182225     169.554     106.143     21.9572     32.9864     38.6479     1.46936     23.6418     33.6184      213.93     103.311     69.2799     343.102     91.7606     91.7631       343.1     69.2804      103.31     213.931     33.6179     23.6432     1.46955      38.648     32.9866     21.9568      106.14     169.552    0.182192     123.878     172.801     205.559    0.986526     60.7582     16.2844     77.7632     37.0758     14.3994     4.70952      1.0576    0.542312      2.8438      42.998      24.833     26.9009     69.2751     4.39624     88.0408     12.1518     63.8149     88.5339   0.0155523     15.6787     10.3185     1.79273     10.0234     57.1101     34.8117      30.544     3.84643     20.1527     183.211     117.176     207.863     23.2446
    5.10563      117.17     4.58796     138.353     6.86959     14.5742     5.48478     57.5666     20.3815     227.959     22.7222     48.6562     9.95771     1.55467     3.36373     28.7828      1.6887     24.5705     13.4624     34.1603     122.197     25.2538     207.679     42.7459     2.84851      86.961     30.5172     1.35805     11.2156     3.66474     55.9519     29.6049     7.36135     3.04633     369.209     97.7242     10.6397   0.0164665     129.384     63.5658     1.86538     132.044     0.42336     46.5794     2.97835     141.691     249.574     266.228     421.628     131.451     131.453     421.627     266.228     249.574     141.693     2.97818     46.5874    0.423346     132.043      1.8654     63.5672     129.387   0.0164399     10.6402     97.7244     369.211     3.04636     7.36163     29.6039     55.9527     3.66521     11.2154     1.35804     30.5151     86.9605     2.84793      42.744      207.68     25.2558     122.206     34.1581     13.4627     24.5692     1.68856     28.7811     3.36303     1.55392     9.95893     48.6547     22.7223     227.966     20.3821     57.5701     5.48432     14.5762     6.87136     138.359     4.58905     117.168     5.10522
    2.77662     183.215     138.353     8.86637     181.621      25.325     2.39771     39.2208      1.1562     83.7751     43.9454       114.1      44.053     25.1867     17.3173     10.8015     30.3076     14.5559     3.20223     5.41848      2.2165     2.79729     90.5825     162.067     23.8719     63.6858     128.389     22.0414     180.896     27.2858   0.0197378     5.75843     77.7915    0.407251     4.48777     19.9786     47.4737     1.30232     5.82474     31.7133     101.645     6.41152     40.3585     6.25852     70.6807     4.38173     194.587       530.2     24.3542     197.377      197.38     24.3544     530.196     194.588     4.38201     70.6844      6.2582     40.3596     6.41197     101.645     31.7122     5.82459     1.30235     47.4733      19.979     4.48737    0.407142     77.7912     5.75832   0.0198226     27.2882     180.896     22.0415     128.394     63.6813     23.8722     162.056     90.5803     2.79916     2.21641     5.41855     3.20216     14.5571     30.3089     10.8022     17.3173     25.1878      44.053     114.101     43.9411     83.7718     1.15611     39.2213     2.39634      25.325     181.618     8.86821     138.352      183.22     2.77711
    2.34182     20.1531     6.86956     181.621     13.6081      193.63     4.49286     17.7287      20.757     1.09848     25.1887     6.46371     153.086     1.75249     196.314     10.8039    0.863731     91.0081     62.6682     78.1605     10.5825    0.287793    0.415031     1.00495     49.8596     80.0284     107.497     1.35543    0.637129     182.903     77.8251     23.1865    0.280189       89.61     182.572   0.0829748     26.7357     98.4549     41.0843    0.970545      2.2678     3.36033    0.126773     26.4834     42.0738      11.405     8.97327     7.01985     64.9641     6.61298     6.61222      64.965     7.01943     8.97281      11.404     42.0757     26.4859    0.126809     3.36027     2.26772    0.970494     41.0828     98.4579     26.7362   0.0829491     182.574     89.6105    0.280478     23.1867     77.8284     182.903    0.637429     1.35576     107.493     80.0209     49.8589     1.00504    0.414981    0.287559     10.5807     78.1625     62.6641     91.0076     0.86403     10.8044     196.321     1.75172     153.093     6.46272     25.1876     1.09904     20.7596     17.7265     4.49376     193.635     13.6111     181.622     6.87122     20.1552     2.34223
     8.6106     3.84545     14.5742     25.3251      193.63     41.5573     118.144     107.033     2.46817     147.698     3.02478     18.4916     1.09235     24.0125     4.60647     174.344     5.63926     80.4774     13.9879    0.710831     172.929     1.38067     167.345     9.51855    0.458585     10.8865     1.55202     35.4243     1.04218     39.5857     84.8624     94.1447     10.7503     145.262      237.66     165.581     26.0803     167.942     41.6152     72.2823     29.1471      5.7805     3.10645     29.9211     139.908 0.000297861     70.9973     199.923  0.00554888     40.9963     40.9946  0.00555396     199.922     70.9959 0.000303067     139.905     29.9236     3.10673     5.78071     29.1484      72.283     41.6127     167.939     26.0803     165.579     237.657     145.267     10.7503     94.1403     84.8635     39.5852     1.04205     35.4224     1.55165     10.8873    0.458593     9.51703     167.344      1.3817     172.926     0.71096      13.989     80.4718     5.63907     174.348     4.60631     24.0113     1.09258     18.4922     3.02541     147.689     2.46873     107.035     118.151     41.5561     193.634     25.3269     14.5772     3.84645     8.61073
  0.0526265     30.5431     5.48478     2.39773     4.49286     118.144      12.643     85.0579     32.0069     25.9514      164.86     42.5823     111.861     2.59023     24.0244      2.2488     30.9859     0.38829     14.2516      4.7735     22.2068     2.83948     42.6697     212.306     12.1324     175.696     59.0494     2.99019     10.0174     15.6441     62.9562     170.135     2.09223     75.0377     154.454     149.025     4.39352     14.0947     128.841     135.953     38.7802     56.1599     17.2593     27.4222    0.605698     297.796     242.075     135.819     579.738     46.2816     46.2793     579.737     135.819     242.075     297.792    0.605708     27.4207     17.2595     56.1595     38.7802     135.953     128.844     14.0954     4.39357     149.025     154.452     75.0394     2.09268     170.138     62.9559     15.6436     10.0171     2.99053     59.0471      175.69     12.1332     212.308     42.6728     2.83868     22.2065     4.77269     14.2534    0.388107     30.9843     2.24924     24.0228     2.59061      111.86     42.5822     164.859     25.9513     32.0091     85.0575     12.6507     118.151     4.49305     2.39732     5.48529      30.544   0.0526786
    122.729     34.8099     57.5667     39.2208     17.7287     107.034     85.0577     146.057      33.562     36.1446     60.2211     15.3113     108.346     57.5916     52.5698     131.952     42.7627     94.6938       3.645  0.00707475     46.5656    0.755366    0.135626     167.296     8.46276     45.7013     141.898     68.6524     106.034     28.9811     2.47252      1.1534     70.0882     6.36522     23.2676    0.783513     198.696     13.1278     77.9469     38.0817     165.908     19.4181     6.10383     22.9367     22.6472     172.241      234.74     394.608     275.595     250.865     250.867     275.595     394.607     234.741     172.238      22.647     22.9377     6.10333      19.418     165.909     38.0844     77.9467     13.1263     198.694     0.78342     23.2669     6.36584       70.09     1.15341     2.47236     28.9823     106.034     68.6516     141.893     45.6997     8.46362     167.296    0.135563    0.755185     46.5643  0.00712027     3.64438     94.6968     42.7584     131.953     52.5683     57.5909     108.343     15.3122     60.2189     36.1492     33.5615      146.04     85.0576     107.035      17.727     39.2172     57.5706     34.8117     122.729
    1.53735     57.1152     20.3816     1.15622      20.757     2.46818      32.007     33.5622     161.296     3.17577     171.663     104.583     1.69584     117.845      27.468      55.708     25.2548     157.105     199.211     109.928     31.5577      16.105     5.40971     84.9033     47.3194     8.88381     145.031     12.5839     3.96942     50.3926     139.538      1.5039     1.80668     130.593     110.995     17.0212      25.698     121.869     55.6073     91.0033     14.5598    0.782909     108.755     1.83723     18.6295    0.608209     165.662     200.671     34.0523     318.563     318.568     34.0524     200.671     165.661    0.607992     18.6296     1.83729     108.755    0.783063     14.5585     91.0011     55.6085     121.863     25.6982     17.0217     110.994     130.594      1.8063     1.50311     139.538     50.3909     3.96942      12.583     145.032     8.88375     47.3172     84.9032      5.4093     16.1046      31.556     109.924      199.21     157.103     25.2558     55.7068      27.468     117.846     1.69586     104.583     171.661     3.17615     161.296     33.5634     32.0083     2.46747     20.7583     1.15609     20.3824     57.1126      1.5379
    141.629     10.0237     227.959      83.775     1.09848     147.697     25.9514     36.1447     3.17575     14.5102     3.66378     133.524     179.683     55.1955      176.06     47.9474     21.0485     34.1095     13.6294     30.0126     121.908     81.4664      64.884     49.5688     34.2314     38.9566     76.8964     76.4178     42.1055     22.0153     130.517     171.063     3.42526     265.786     196.436      33.643     1.73403     121.452     133.288      28.192     13.2734     32.3178     52.8694    0.940939     25.7167    0.771961     1.37139     18.6717      41.278     25.7763     25.7757     41.2774     18.6721     1.37156    0.772002      25.718    0.941253     52.8681     32.3167     13.2729     28.1926     133.286     121.456     1.73378     33.6431     196.436     265.787      3.4256     171.062     130.516     22.0158     42.1044     76.4208      76.898     38.9567     34.2327     49.5714     64.8829     81.4632     121.908     30.0093     13.6293     34.1112     21.0489     47.9473     176.047     55.1997     179.689     133.517     3.66363      14.513     3.17603     36.1465     25.9511     147.691     1.09913     83.7642      227.95     10.0237     141.628
    2.10731     1.79269     22.7222     43.9456     25.1887     3.02477      164.86      60.221     171.663     3.66375    0.741771     18.3009     1.71887     179.184     2.71946     255.886     4.89539     152.898     3.15652     21.1651     1.65495     13.7762     4.72254     91.8607      72.015      18.112     208.881     4.81233     68.9814     5.87656     62.3864     156.315    0.409711     65.2722     127.963     252.621   0.0208212      8.2251     59.9873     575.077     11.1557     18.3441     16.4905     90.1884     20.9329     35.1995     360.484     108.041     37.2135     47.1306     47.1314     37.2129     108.041     360.484     35.1991     20.9312     90.1883     16.4906     18.3437     11.1562     575.082     59.9868     8.22459    0.020812     252.619     127.964     65.2698     0.40953     156.316     62.3863     5.87639     68.9822     4.81315     208.881     18.1137     72.0168     91.8623     4.72289     13.7792     1.65475      21.166     3.15572     152.898      4.8954     255.892     2.71945     179.185     1.71893     18.3019    0.741317     3.66361      171.66     60.2189     164.859      3.0254      25.189     43.9399     22.7237     1.79274     2.10788
    115.548     10.3173     48.6564       114.1     6.46365     18.4916     42.5828     15.3112     104.583     133.524      18.301     55.3681     36.9445     13.7799     111.472      163.22     63.6695     210.846     90.4838    0.331302     102.948     41.1076     22.2568      33.575     21.7669     3.72138      11.715     225.614  0.00442572     95.3938     5.21239     7.90726     40.4304     36.1274     116.861     27.9718     161.131     48.5268     210.469     80.3008     168.337     77.5215     20.8592     5.76308     60.9562     288.462     217.759     390.107     262.532      260.47     260.473     262.534     390.109     217.759     288.464     60.9564     5.76306     20.8598     77.5216     168.336     80.3016     210.471     48.5252     161.131     27.9721     116.863      36.128     40.4324      7.9073      5.2125     95.3945  0.00442312     225.612     11.7161      3.7215     21.7664     33.5763      22.255     41.1093     102.943    0.331268     90.4866     210.848     63.6715     163.223     111.469     13.7771     36.9448      55.376     18.3019     133.517      104.58     15.3122     42.5822     18.4921     6.46293     114.103     48.6541     10.3185     115.544
    8.74527     15.6789     9.95774      44.053     153.086     1.09235     111.861     108.347     1.69585     179.683     1.71889     36.9444     6.89562     47.7804     14.6885     142.395     54.0036     32.9599     475.655     1.97798     183.485     54.2842     30.8369      111.04     6.20147     80.2583      14.496     26.0076     142.858     1.28852     477.548      13.177     39.8773     36.8496     174.407     52.2696     193.876     9.01789     25.1709     12.7524      155.04     119.679     31.8306    0.269439     21.6376      203.27     171.058     171.835     611.311     320.714     320.715     611.313     171.835      171.06      203.27     21.6375    0.269296     31.8304     119.678     155.039      12.752     25.1699     9.01745     193.877       52.27      174.41     36.8494      39.877     13.1749     477.554     1.28852     142.859     26.0057     14.4951     80.2564     6.20227      111.04     30.8379     54.2819     183.482      1.9779     475.647     32.9605     54.0041     142.396     14.6878     47.7811     6.89634     36.9447     1.71894     179.687     1.69564     108.343     111.861     1.09259     153.094     44.0517      9.9583     15.6787     8.74569
    24.3856   0.0155824     1.55468     25.1867     1.75249     24.0124     2.59024     57.5917     117.845     55.1953     179.183     13.7799     47.7801     156.198      18.808     73.2805     54.2412     33.0771     26.3872     163.209     3.08949     265.362    0.760026     63.7966      53.314    0.327001     133.965     7.62913     165.843   0.0188716     138.642     210.819     1.50512     242.186     173.698     13.9466      1.8782     99.6511     190.816     25.8364     8.64303     89.5442     153.776    0.420391     24.6872     0.87594      27.918     118.444     100.492     326.552     326.554     100.492     118.445     27.9184    0.875993     24.6873    0.420274     153.776     89.5451     8.64303     25.8363     190.817     99.6528     1.87803     13.9469       173.7     242.184     1.50506     210.809     138.643   0.0188843     165.849     7.62885     133.966    0.326874     53.3136     63.7979    0.759999     265.361     3.08992     163.209     26.3892     33.0765     54.2421     73.2758     18.8092     156.197     47.7808     13.7771     179.184     55.1992     117.852      57.591     2.59062     24.0112     1.75177      25.187     1.55384   0.0155515     24.3857
    74.4067     88.5345      3.3637     17.3172     196.314     4.60644     24.0244     52.5699     27.4681     176.059     2.71944     111.474     14.6885     18.8079     35.9827       4.383     206.995   0.0697925     310.388   0.0437491     135.768      2.1993     16.6235     7.53463     68.6488     7.76386     75.1986     18.3791      1.3178     9.17515      15.563       202.9     40.1906     99.1289     50.2379     298.672     79.6746     143.279      134.98     213.467     67.8036     31.1817     41.6304     26.3406     14.0262     65.3354     44.0292    0.528496     4.13784      41.017     41.0161     4.13785    0.528436     44.0282      65.334     14.0255     26.3399     41.6299     31.1811     67.8053     213.464     134.977     143.278     79.6749     298.673     50.2361     99.1311     40.1908     202.904      15.563     9.17552     1.31794     18.3789     75.2002     7.76318     68.6499     7.53369     16.6229     2.19885     135.769    0.043754     310.382   0.0697846      206.99     4.38277     35.9851     18.8086      14.688     111.476     2.71905     176.057      27.469     52.5716     24.0243     4.60636     196.319     17.3167     3.36407     88.5361     74.4032
    18.9914      63.818     28.7829     10.8014     10.8039     174.344     2.24879     131.951     55.7082     47.9474     255.885     163.221     142.395      73.281     4.38293     15.6464    0.215752     14.4015     22.7047     321.567     70.3546      524.64     39.5066      16.401     8.90489    0.241588     66.8249     209.315     210.487     71.9469     12.9273     51.6421     35.5536     218.692     161.564     188.243     92.1306     32.6371     182.598     171.758     160.545     78.9501    0.373245     25.5254     241.974     92.4415     163.704     398.142     27.1405     171.829     171.826     27.1405     398.143     163.703     92.4417     241.974     25.5202    0.373298     78.9506     160.544     171.761     182.602      32.636     92.1305     188.245     161.561      218.69     35.5564      51.642     12.9282     71.9492     210.489     209.311     66.8246    0.241613     8.90507     16.4007     39.5073     524.653     70.3567     321.567     22.7035     14.4018    0.215777     15.6461     4.38241      73.283     142.398     163.229     255.884      47.945     55.7086     131.954     2.24884      174.34     10.8038     10.8037     28.7844     63.8198     18.9904
    21.3637     12.1522      1.6887     30.3076    0.863734     5.63927     30.9859     42.7626     25.2549     21.0485     4.89538     63.6694     54.0033     54.2413     206.996    0.215755     233.154     16.8137     2.26753     60.9533     4.30381     151.699     341.554     159.531     156.191     185.888    0.537783     31.5731     95.4903      141.71     313.814     209.425     30.7775      102.03     73.8843     78.7408     107.778     73.7712     30.0678     157.373     111.593     263.744     167.401     146.796       71.91     189.234     396.779     184.047     645.485     416.297     416.295     645.488     184.046      396.78     189.235     71.9106      146.79     167.401     263.742     111.589     157.376     30.0692     73.7717     107.778     78.7403     73.8849     102.032     30.7764      209.42     313.813     141.708     95.4898     31.5732    0.537847     185.888     156.191     159.533     341.549     151.702     4.30401     60.9529     2.26835     16.8134     233.162    0.215629     206.992     54.2421     54.0039     63.6715      4.8954     21.0486     25.2544     42.7583     30.9842     5.63908    0.864198     30.3095     1.68814     12.1517     21.3619
    36.0659     88.0431     24.5705     14.5559     91.0081     80.4774    0.388291     94.6947     157.105     34.1094     152.897     210.846       32.96     33.0773   0.0697911     14.4014     16.8137     220.922     62.8242     149.212     145.088     1.17158     168.215    0.402205     64.2674     52.1928     33.0132     11.7266      61.753      23.618     11.7251     177.292     53.7836     45.1802     202.154     141.313      72.808     153.284     87.4274     100.019     197.643     266.025     29.2039     70.1846      81.982     158.997      55.946     360.757     417.166     642.247     642.246     417.167     360.758     55.9468     158.997     81.9848     70.1848     29.2038     266.025     197.642     100.019     87.4264     153.285     72.8069     141.314     202.152     45.1795     53.7819     177.292     11.7247     23.6175     61.7535     11.7282     33.0158     52.1931     64.2643     0.40238     168.215     1.17138     145.091     149.208     62.8248      220.93     16.8134     14.4023   0.0697554     33.0762     32.9605     210.847     152.898     34.1107     157.106     94.6974    0.388107     80.4718     91.0093     14.5559     24.5704     88.0418     36.0666
    3.05147     4.39647     13.4623     3.20221     62.6682     13.9879     14.2516     3.64502      199.21     13.6293     3.15651     90.4833     475.654     26.3872     310.389     22.7047     2.26755     62.8243     3.17409     100.598     54.5267     262.656     74.6551     394.686    0.600933     307.032     1.83372     58.3261     35.2502     3.33534     80.6853    0.146256     243.615     15.1384     244.816     283.914     59.9249     82.0581     361.564      111.87     5.05418     19.1158     105.905     78.1886     25.1595     1.94711     17.5393     30.9464     181.803     285.861     285.866     181.805     30.9471     17.5391     1.94691      25.159     78.1926     105.906     19.1159     5.05462     111.873     361.563     82.0542      59.926     283.912     244.817     15.1382     243.616    0.146289     80.6829     3.33532     35.2502     58.3275     1.83389     307.027    0.601295     394.688     74.6563     262.647     54.5249     100.596     3.17534     62.8248     2.26837      22.704     310.381     26.3892     475.647     90.4863     3.15573     13.6298     199.214     3.64437     14.2534      13.989     62.6649       3.202      13.463     4.39628     3.05173
    3.84456     69.2757     34.1602     5.41849     78.1603    0.710838     4.77348  0.00707387     109.928     30.0126     21.1651    0.331295     1.97797     163.209   0.0437481     321.568     60.9534     149.212     100.598     29.0326     101.478     177.751     176.432     9.36651     161.361     9.36421     263.241     79.1811     375.252     2.67208     83.8794     100.857     24.6191     144.065     4.66402     233.269     328.146   0.0628852     167.224     111.077     338.453     74.5556     53.1177     51.8258     244.427     162.174     8.99988     38.6637     7.43419     1.11493     1.11438     7.43416     38.6637     8.99967     162.173     244.426      51.822     53.1169     74.5558     338.453     111.079     167.223   0.0629436     328.144      233.27     4.66418     144.065     24.6201     100.858     83.8809     2.67234     375.255     79.1778     263.236     9.36552     161.363     9.36637     176.435     177.748     101.478     29.0278     100.596     149.208     60.9529     321.565   0.0438178     163.208     1.97789     0.33127      21.166     30.0122     109.922  0.00712152     4.77269    0.710964     78.1642     5.41856     34.1589     69.2751     3.84527
    23.1196     26.9002     122.197      2.2165     10.5825     172.929     22.2068     46.5654     31.5573     121.908     1.65494     102.948     183.485     3.08951     135.768     70.3551      4.3038     145.087     54.5266     101.479     35.1059     100.702     114.725     252.571     129.304     110.023     43.8835     13.9526     188.644     86.9952     46.9134     65.8603     123.558     37.6568     288.383     63.6456     134.857     149.775     71.2931      330.76     301.569     253.925     116.764     167.661     171.207     344.899     360.129     85.3956     424.564     274.762     274.761     424.567      85.395     360.127     344.897     171.207     167.661     116.765     253.924     301.571     330.764     71.2954     149.774      134.86     63.6455     288.384     37.6561     123.559     65.8581     46.9135      86.996     188.651     13.9555     43.8857     110.023     129.302      252.57     114.723     100.697     35.1068     101.479     54.5253     145.086     4.30353     70.3533     135.772     3.08961     183.485     102.948     1.65475      121.91     31.5576     46.5669     22.2052     172.929     10.5806     2.21526     122.197     26.8981     23.1191
   0.909946     24.8303     25.2539     2.79732     0.28779     1.38066     2.83947    0.755369      16.105     81.4666     13.7761     41.1078     54.2839     265.364     2.19929      524.64     151.698     1.17159     262.654      177.75     100.702      47.195     29.7366      143.46     146.976     277.441     190.511     67.0671     63.0391     65.3793     111.521     139.352     152.161     2.18859     58.6527     471.946     19.8182     557.429     87.7002      4.8644     262.346     371.136     105.037      36.803     218.731     225.318     317.331     711.706      263.23     1112.11     1112.11     263.234     711.708     317.333     225.317     218.735     36.8018     105.037     371.135     262.344     4.86364     87.7035     557.427     19.8173     471.946     58.6498     2.18891     152.167     139.354     111.516     65.3807     63.0405       67.07     190.511     277.434     146.976     143.462     29.7389     47.1907     100.702      177.75     262.661     1.17176     151.698     524.648     2.20005      265.37     54.2833      41.107     13.7769      81.463     16.1039    0.755152     2.83885     1.38101      0.2876     2.79923      25.256     24.8309    0.910245
    34.7412     42.9974     207.678     90.5824    0.415031     167.345     42.6697    0.135619      5.4097     64.8837     4.72253     22.2569     30.8368    0.760021     16.6234     39.5069     341.555     168.216     74.6547     176.432     114.725     29.7365      186.19    0.445194     193.109     4.42331     572.293     2.13565     542.954    0.948616     93.2185     14.6938     49.3094     234.965     56.6101     404.869     109.328     66.8462     443.764     97.1004    0.860293     100.648     257.627     56.4406     36.8612     80.4053     295.468     209.688     788.191      667.28     667.269     788.189     209.687      295.47      80.404     36.8604     56.4397     257.633     100.647    0.860191     97.0993     443.766     66.8432     109.328      404.87     56.6109     234.968     49.3099     14.6932     93.2211    0.948634     542.955     2.13605     572.287     4.42315     193.111    0.445427     186.196     29.7348     114.724     176.435     74.6562     168.216     341.551     39.5055      16.623    0.760006     30.8378     22.2551     4.72294     64.8828     5.40933    0.135564     42.6727     167.344    0.415221     90.5811     207.678     42.9979     34.7441
    2.80927     2.84386      42.746     162.067     1.00497     9.51852     212.305     167.296     84.9029     49.5687     91.8605     33.5751      111.04      63.797     7.53464     16.4011     159.531    0.402215     394.687      9.3666     252.571      143.46    0.445182     276.937     13.7217     67.9115   0.0594141     90.6941     3.01727      560.33     15.3045     353.405     12.8623     30.8655     26.5115     19.2953     450.136     90.5851     124.004     451.751     242.122      10.699     35.2542     289.399     218.234     28.4588    0.223969     114.482     222.823      143.05     143.048     222.825     114.482    0.224006     28.4591     218.233     289.403     35.2541     10.6991     242.121     451.746     124.007     90.5834     450.131     19.2956     26.5096     30.8657     12.8614     353.403     15.3035     560.328     3.01673     90.6943   0.0592854     67.9088     13.7223     276.933    0.445417     143.468     252.563     9.36638     394.687    0.402379     159.534     16.3992     7.53366     63.7976      111.04     33.5762     91.8621     49.5713     84.9029     167.295     212.309     9.51711     1.00521     162.063      42.744      2.8438     2.80916
   0.231064    0.542595     2.84852     23.8719     49.8596    0.458582     12.1323     8.46272     47.3195     34.2314     72.0149     21.7667     6.20146     53.3139      68.649     8.90493     156.192      64.267    0.600945     161.361     129.305     146.976     193.108     13.7218     557.199     135.024     500.909     67.1808     79.1984     106.625     179.164     49.6543     409.989    0.129914     172.496     46.0568      81.796     625.394     45.9018     379.153     517.498     400.312     7.17978     184.265     259.684     504.011     171.935     1.83412     58.6964     34.5395     34.5389     58.6963     1.83393     171.935     504.008      259.69     184.276     7.17984     400.309     517.507     379.149     45.9031     625.396     81.7973     46.0572     172.495     0.13002     409.989     49.6586     179.169     106.628     79.1999     67.1799     500.914     135.032     557.202     13.7223     193.111     146.975     129.307     161.362    0.601305     64.2643     156.191     8.90417      68.651     53.3137     6.20227     21.7664     72.0168     34.2344     47.3228     8.46367     12.1331    0.458593     49.8609     23.8735     2.84776    0.542315    0.231072
     70.907     1.05796      86.961     63.6856      80.028     10.8865     175.696     45.7014     8.88385     38.9565      18.112     3.72139     80.2583    0.327003     7.76381    0.241578     185.888     52.1929     307.032     9.36419     110.023      277.44     4.42331     67.9115     135.024     24.4009     281.555     243.773     149.465     189.868     318.738      79.733     410.518     183.507     86.9503     279.825     2.94659     236.728     444.578     9.46211      667.95      492.75     135.336      19.471     358.423     504.142     413.145     647.596     385.645     642.934     642.929     385.649     647.597     413.143     504.141     358.424     19.4706     135.335     492.751     667.946     9.46273     444.579     236.722     2.94677     279.827       86.95     183.508     410.527     79.7316     318.733     189.871     149.465     243.775     281.555     24.4005     135.024     67.9097     4.42337     277.434     110.022     9.36477     307.036     52.1919     185.888    0.241572     7.76304    0.326931     80.2584     3.72111     18.1137     38.9553     8.88348     45.7031     175.698      10.886     80.0219     63.6904     86.9561      1.0578     70.9085
    107.526     4.71127     30.5172     128.389     107.498     1.55203     59.0495     141.898     145.031     76.8968     208.881     11.7151      14.496     133.966     75.1985     66.8249    0.537799     33.0133      1.8337     263.241     43.8836     190.511     572.294   0.0594134      500.91     281.555      9.4432     472.028    0.500732     214.587     51.1584     231.564     34.6268     394.121     15.6953     141.986     209.808     9.60749     467.129     295.743    0.400994     297.993     544.172     66.9491   0.0326143     170.145     718.677     853.316     1228.87     971.473     971.484     1228.87      853.32     718.677     170.143   0.0326416     66.9487     544.173     297.993    0.400938     295.748     467.127     9.60729     209.808     141.985     15.6955     394.127     34.6249     231.571     51.1581     214.591    0.500759     472.025     9.44439     281.564     500.913   0.0593537     572.296     190.515     43.8853     263.238     1.83425     33.0137    0.537646     66.8246     75.2003     133.965     14.4959     11.7154     208.884     76.9006     145.036     141.897     59.0453     1.55205     107.494      128.39     30.5155      4.7107     107.521
     2.9333     14.4002     1.35806     22.0414     1.35544     35.4243     2.99019     68.6523     12.5839     76.4178     4.81233     225.614     26.0076     7.62912     18.3791     209.314      31.573     11.7266     58.3258     79.1807     13.9526     67.0671     2.13565     90.6941     67.1809     243.773     472.028     41.3478     590.232     62.3715     401.855     2.08846     409.119     46.0366     611.556     1.72368     450.048     117.404     9.57319     649.005     721.797     23.8994     202.331     361.257     245.368    0.943421     198.145     799.964     840.111     790.751     790.744     840.114     799.958     198.147    0.943507     245.367      361.26     202.333     23.8993     721.794         649     9.57384     117.398     450.047     1.72356     611.557     46.0387     409.112     2.08836     401.854     62.3705     590.236       41.35     472.028     243.771     67.1794     90.6943     2.13572      67.068     13.9548     79.1806     58.3275     11.7266     31.5739     209.317     18.3788     7.62869     26.0076     225.611     4.81285     76.4209     12.5836      68.655     2.99058     35.4253     1.35544     22.0405      1.3578     14.4009     2.93379
    85.0599      37.076     11.2156     180.895    0.637124     1.04218     10.0175     106.034     3.96944     42.1052     68.9814  0.00442521     142.859     165.844     1.31782     210.487     95.4893     61.7531     35.2502     375.252     188.644     63.0389     542.955     3.01729      79.198     149.465    0.500742     590.233     6.05718     483.952     271.787     257.659     357.913      272.33     20.0553     443.243     3.25888     849.612     102.668     125.603     853.723     796.626     18.4072     372.198     502.199     352.203     5.68659     55.2722     162.954     169.023     169.032     162.956     55.2719     5.68672     352.203     502.197     372.195      18.408     796.625     853.728     125.601      102.67     849.615     3.25894     443.244     20.0556     272.331     357.919     257.661     271.785     483.953      6.0574     590.236    0.501022     149.467     79.1992     3.01675     542.957      63.039     188.662     375.255     35.2501     61.7533     95.4891     210.482     1.31769      165.85     142.859  0.00442281     68.9821     42.1035     3.96934     106.034     10.0171     1.04205    0.637005     180.895     11.2159     37.0759      85.061
    124.593     77.7634     3.66477     27.2858     182.903     39.5855     15.6442     28.9812     50.3926     22.0155     5.87654     95.3942     1.28853   0.0188704     9.17513      71.947      141.71      23.618     3.33535     2.67206     86.9948     65.3791    0.948601     560.331     106.625     189.868     214.586     62.3714     483.954     103.323     346.972     186.944     169.416     465.426      225.41     260.276     242.767     124.198     553.075     42.4831     301.359     1208.29     505.962     119.216     437.348     537.201     641.468     289.071     167.004     65.4328     65.4339     167.004     289.071     641.471     537.203     437.352     119.217     505.961     1208.29     301.361     42.4829     553.081     124.201     242.766     260.275     225.408     465.423     169.412     186.952     346.974     103.322     483.953     62.3678      214.59     189.868     106.627     560.329    0.948608     65.3738     86.9933     2.67231     3.33533     23.6175     141.708     71.9451     9.17541   0.0188817     1.28851     95.3949     5.87642     22.0156     50.3924     28.9824     15.6436      39.585     182.905     27.2853     3.66402     77.7635     124.593
    52.2514     16.2839     55.9519   0.0197366     77.8249     84.8623     62.9562     2.47252     139.538     130.517     62.3862     5.21235      477.55     138.643     15.5631     12.9273     313.815     11.7251     80.6851     83.8791     46.9134     111.521     93.2184     15.3044     179.164     318.739     51.1581     401.856     271.787      346.97     807.996     113.209     606.436     15.5832     483.522     109.601     390.834     340.944     282.075     631.157     3.26243     357.079     1006.69     317.694     125.729     442.984     1052.08     1740.62     1050.66     909.253     909.239     1050.66     1740.62     1052.08     442.987     125.726     317.687     1006.69     357.078       3.262     631.162     282.072     340.931     390.836     109.601      483.52     15.5844     606.435     113.205     807.989     346.972     271.784     401.854     51.1571     318.738     179.168     15.3035      93.221     111.519     46.9154      83.881     80.6829     11.7247     313.812      12.927      15.562     138.643     477.553     5.21253     62.3865     130.519      139.53     2.47236     62.9558     84.8636     77.8319   0.0197662     55.9518     16.2844     52.2523
  0.0275858      60.756      29.605     5.75844     23.1864     94.1447     170.135      1.1534     1.50388     171.064     156.315     7.90723     13.1771     210.819     202.901     51.6421     209.426     177.293    0.146259     100.857     65.8604     139.352     14.6938     353.405     49.6543     79.7329     231.564     2.08846     257.658     186.944      113.21     800.577     1.30631     1072.24     48.0024     771.399     18.4958     740.803     138.368     569.012     810.021     13.3128     393.884      1185.5     312.251       197.5     793.701     1591.74     2263.14     1657.54     1657.56     2263.14     1591.74     793.703     197.498     312.253      1185.5     393.886     13.3128      810.02     569.003     138.371     740.797     18.4957     771.394     48.0035     1072.23     1.30559     800.564     113.212     186.947     257.659      2.0879     231.565     79.7294     49.6545     353.403     14.6942     139.353     65.8575     100.859     0.14632     177.291     209.422     51.6403     202.907     210.818     13.1768     7.90754     156.312     171.065     1.50294     1.15298     170.136     94.1435     23.1859     5.75809     29.6045     60.7574   0.0276088
    44.3937     0.98673     7.36135     77.7912    0.280181     10.7503     2.09223     70.0881     1.80667     3.42526     0.40973     40.4304     39.8772     1.50511     40.1905     35.5536     30.7777     53.7837     243.616     24.6192     123.558      152.16     49.3091     12.8624     409.988     410.518     34.6269     409.119     357.914     169.416     606.438     1.30632      611.36     101.117     781.242     189.165     536.049     209.269     825.835     3.42212     1297.05      1043.6     1.55829     708.779     1332.29     136.008     195.501     468.197     1315.85     1575.88     1575.85     1315.84     468.197     195.501     136.009     1332.29     708.791     1.55842      1043.6     1297.05     3.42274     825.837     209.271      536.05     189.164      781.24     101.115     611.383     1.30609     606.433     169.415     357.911     409.123     34.6256     410.533     409.991     12.8622      49.309      152.16     123.558     24.6203     243.615     53.7818      30.779     35.5562     40.1907     1.50509     39.8774     40.4299     0.40971     3.42502     1.80642       70.09     2.09245     10.7496    0.280078     77.7892      7.3613    0.986756     44.3962
    157.948     205.561     3.04636    0.407243     89.6105     145.261     75.0378     6.36523     130.593     265.785     65.2724     36.1274     36.8497     242.186     99.1292     218.691     102.029     45.1801     15.1384     144.066     37.6567     2.18861     234.965     30.8655    0.129916     183.507     394.119     46.0368     272.329     465.426     15.5832     1072.24     101.117     689.314     536.814     691.908       579.2     391.908     594.286     541.412     129.733      1699.7     805.578     83.2796     703.113        1388     378.963       5.675   0.0925265     518.703      518.71   0.0925488     5.67503     378.963        1388     703.105     83.2805     805.574      1699.7     129.732     541.419     594.282       391.9       579.2     691.906     536.811     689.321     101.119     1072.24      15.583     465.427     272.328     46.0386     394.127     183.506    0.129931     30.8659     234.966     2.18873      37.657     144.066     15.1382     45.1795      102.03     218.698     99.1326      242.19     36.8494     36.1283     65.2724     265.788     130.594     6.36538     75.0393     145.261     89.6077    0.407306     3.04678     205.559     157.943
    40.7227     172.803     369.211      4.4878     182.573      237.66     154.453     23.2675     110.996     196.437     127.962     116.861     174.407     173.697      50.238     161.564     73.8843     202.153     244.816     4.66404     288.382     58.6525     56.6101     26.5115     172.496     86.9503     15.6953     611.559     20.0553     225.409     483.522     48.0024     781.244     536.814     236.243     1120.47     189.277     1070.85      240.31     995.766     414.001     349.361     1562.27     910.754     150.429     1335.31     1992.04     1649.79      290.73     360.875      360.88     290.731     1649.79     1992.05     1335.29     150.425     910.745     1562.27      349.36     414.002     995.758     240.316     1070.86     189.277     1120.46     236.244     536.804     781.232     48.0057      483.52     225.408     20.0555     611.551     15.6952      86.952     172.495     26.5096     56.6106     58.6485     288.376     4.66415     244.816     202.152      73.885     161.558     50.2387       173.7      174.41     116.863     127.965     196.451     110.989     23.2671     154.452     237.657     182.573     4.49084     369.228     172.801     40.7223
    17.3118      123.88     97.7244     19.9786   0.0829773     165.581     149.024    0.783494     17.0213     33.6427     252.622     27.9718     52.2693     13.9467     298.673     188.243     78.7411     141.314     283.914     233.268     63.6457     471.946     404.869     19.2953     46.0571     279.825     141.986     1.72369     443.244     260.275     109.601     771.398     189.165     691.904     1120.47     48.1355     1637.48     25.8018      1560.7       8.817     1804.32     541.434     1015.08     1978.18     550.527     311.782     3021.13     3090.86     2464.68      2667.5     2667.51     2464.68     3090.87     3021.12     311.776     550.531     1978.18     1015.07     541.431     1804.33     8.81808      1560.7     25.8044     1637.49     48.1384     1120.47     691.912     189.169     771.397     109.602     260.275     443.244     1.72392     141.986     279.826     46.0571     19.2957     404.869     471.948     63.6481     233.269     283.909     141.313     78.7407     188.245      298.67      13.947     52.2703      27.972      252.62     33.6457     17.0213     0.78341     149.024     165.579   0.0830145     19.9795     97.7231     123.878     17.3121
    2.28697    0.182224     10.6397     47.4736     26.7359     26.0801      4.3936     198.696      25.698     1.73405   0.0208223     161.131     193.875     1.87819     79.6748     92.1308     107.779     72.8079      59.925     328.145     134.857     19.8182     109.328     450.137     81.7961      2.9466     209.807     450.048     3.25886     242.766     390.834     18.4958     536.048     579.202     189.277     1637.48      8.7929     1757.93     519.492     1444.35     528.994     2141.37     188.908     1490.46     2381.39     103.809     617.311     2691.13     4691.08     4288.75     4288.78     4691.09     2691.13      617.31     103.809     2381.41     1490.48     188.905     2141.37      528.99     1444.37     519.482     1757.94     8.79348     1637.48     189.278     579.197     536.048      18.496     390.835     242.767     3.25892     450.043     209.809     2.94655     81.7972     450.133     109.329      19.817     134.862     328.143     59.9259     72.8069     107.778     92.1291      79.672     1.87803     193.877     161.131   0.0208128     1.73497     25.6972     198.694     4.39358     26.0802     26.7356      47.475     10.6377    0.182191       2.287
    155.838     169.553    0.016469     1.30232     98.4551     167.941     14.0947     13.1278     121.869     121.453     8.22514     48.5267     9.01787     99.6511     143.279     32.6372      73.771     153.285     82.0581   0.0628841     149.776     557.428     66.8462     90.5854     625.394     236.728     9.60744     117.403     849.613     124.198     340.945       740.8     209.268     391.908     1070.84     25.8019     1757.93     348.377      1459.3      892.63     1132.75     1503.07     2617.51    0.131847     1558.95     2316.82     417.001     581.672     2559.85     3311.31     3311.32     2559.86     581.675         417     2316.82     1558.95    0.131705     2617.51     1503.07     1132.76      892.62     1459.32     348.382     1757.94     25.8022     1070.85     391.917     209.272     740.796     340.946       124.2     849.615     117.399     9.60622     236.734     625.394     90.5849     66.8455     557.419     149.767   0.0628733     82.0574     153.286       73.77     32.6363     143.282     99.6516      9.0174     48.5269     8.22516     121.454     121.868     13.1272     14.0953     167.941     98.4546      1.3023   0.0164549     169.554     155.839
    34.8803     106.143     129.385      5.8248     41.0841     41.6154     128.841     77.9471     55.6076     133.287     59.9868      210.47      25.171     190.816      134.98     182.599      30.068     87.4274     361.564     167.223     71.2931     87.6999     443.763     124.004      45.902     444.577      467.13     9.57324     102.667      553.08     282.076     138.367     825.836     594.284     240.311      1560.7     519.495      1459.3     2168.76     679.193     2421.81     413.919     2669.07     3209.98     39.2175     3630.92     3439.95     775.871     9.00665     519.731     519.741     9.00663      775.87     3439.94     3630.92     39.2151     3209.96     2669.07     413.919     2421.81     679.203     2168.71     1459.29     519.494     1560.71     240.311     594.281     825.832     138.363     282.074     553.076     102.668     9.57426     467.128     444.579     45.9032     124.004     443.764     87.7032     71.2935     167.224     361.563     87.4268     30.0676     182.601     134.982     190.815     25.1701     210.469     59.9852     133.291     55.6063     77.9482     128.842     41.6153     41.0849     5.82599     129.386      106.14     34.8796
    5.53851     21.9571      63.566     31.7134    0.970563     72.2822     135.953     38.0816     91.0035     28.1919     575.076     80.3003     12.7525     25.8363     213.467     171.757     157.374     100.019      111.87     111.077      330.76     4.86441     97.0999     451.752     379.154     9.46211     295.745     649.005     125.603     42.4831     631.158     569.013     3.42217     541.412     995.764     8.81702     1444.35      892.63     679.194     3390.55     49.1021     4814.08     4.73088     5580.14     1848.24     711.404     5455.07     6155.79     3213.07     1162.34     1162.33     3213.08     6155.82     5455.08     711.397     1848.26     5580.16     4.73044      4814.1     49.1023     3390.55     679.206      892.65     1444.35     8.81682     995.766     541.417     3.42161     569.019     631.155     42.4828     125.604     649.006     295.738     9.46113     379.152      451.75     97.0978     4.86498     330.762     111.076     111.872     100.019     157.374     171.761     213.462     25.8357     12.7526     80.2998     575.075     28.1936     91.0042      38.083     135.951     72.2838    0.970077     31.7113     63.5664     21.9574     5.53908
    69.1588     32.9863     1.86542     101.645     2.26781     29.1471     38.7804     165.908     14.5598     13.2734     11.1557     168.337      155.04     8.64303     67.8039     160.545     111.593     197.643     5.05416     338.452     301.568     262.347    0.860299     242.122     517.498     667.949    0.401013     721.796     853.721      301.36     3.26242      810.02     1297.06     129.733     414.003     1804.32     528.992     1132.75      2421.8     49.1018     3563.63     343.296     4987.34      443.55     6514.05      1158.3     2025.38     9773.56     10545.4     9104.37     9104.33     10545.3     9773.55     2025.38     1158.31     6514.02     443.561     4987.35     343.297     3563.61     49.1064     2421.79     1132.74     528.989     1804.32     414.002     129.728     1297.06     810.009     3.26208     301.362     853.726     721.807    0.401346     667.959     517.507     242.122    0.860191     262.348     301.562     338.453     5.05457     197.642     111.589     160.555     67.8032       8.643     155.039     168.336     11.1561     13.2725     14.5597     165.908     38.7799     29.1483     2.26863     101.642     1.86569     32.9869     69.1581
    29.3229     38.6481     132.044     6.41155     3.36031      5.7806     56.1598     19.4179    0.782926     32.3178     18.3439     77.5213     119.679     89.5443     31.1819     78.9504     263.743     266.024     19.1159     74.5551     253.923     371.138     100.648      10.699     400.308     492.749     297.993     23.8994     796.626      1208.3     357.079      13.313      1043.6      1699.7     349.359     541.434     2141.37     1503.07     413.919      4814.1     343.298      4318.3     2881.81     6344.95     2618.68     8707.05     310.751      3397.1     13585.3     16964.5     16964.5     13585.4      3397.1     310.754     8707.09     2618.65     6344.93     2881.81     4318.32     343.297      4814.1     413.934     1503.09     2141.36      541.43      349.36     1699.69     1043.58     13.3105     357.079     1208.29     796.625     23.8961         298      492.75     400.305     10.6991     100.647     371.132     253.918     74.5554     19.1159     266.025     263.742     78.9527     31.1816     89.5449     119.678     77.5219     18.3437     32.3199    0.783346      19.418     56.1595     5.78066     3.36022     6.41122     132.043     38.6479     29.3227
  0.0463133     1.46935    0.423361     40.3585    0.126785     3.10648     17.2594      6.1038     108.755     52.8693     16.4906     20.8593     31.8305     153.777     41.6305    0.373244     167.401     29.2037     105.906     53.1179     116.764     105.038     257.627     35.2542     7.17982     135.336     544.171     202.331     18.4073     505.963     1006.69     393.881     1.55829      805.58     1562.28     1015.07     188.907     2617.51     2669.06     4.73081     4987.35      2881.8     1760.07     8298.08     4113.64     6945.23     11969.8     194.738     3504.33     13775.6     13775.6     3504.31     194.739     11969.8     6945.18      4113.7     8298.18     1760.07     2881.81     4987.35     4.72825     2669.04      2617.5     188.905     1015.07     1562.28     805.591     1.55857     393.887     1006.69     505.963      18.408     202.327     544.165      135.33     7.17987     35.2543     257.632     105.038      116.76     53.1166     105.906     29.2039     167.402    0.373211     41.6306     153.776     31.8302     20.8599     16.4906     52.8655     108.756     6.10342     17.2595     3.10672      0.1268     40.3599    0.423338     1.46954   0.0462823
    4.88166     23.6418     46.5796      6.2585     26.4836     29.9209     27.4223     22.9368     1.83723    0.940958     90.1885      5.7631    0.269439    0.420396     26.3405     25.5255     146.796     70.1842     78.1883      51.826     167.662     36.8028     56.4409       289.4     184.264      19.471     66.9492     361.259       372.2     119.216     317.693      1185.5     708.778     83.2801     910.758     1978.18     1490.46    0.131829     3209.97     5580.15     443.548     6344.97     8298.11     242.146       17160     856.964     16753.3     18942.5     903.609     607.387     607.381     903.613     18942.5     16753.3     856.993       17160     242.128      8298.1     6344.97     443.548     5580.13     3210.02     0.13151     1490.46     1978.18     910.752     83.2735     708.785     1185.49     317.694     119.217     372.202     361.255     66.9508     19.4711     184.268     289.398     56.4411     36.8023     167.662     51.8253     78.1925     70.1842     146.793     25.5218     26.3403    0.420385    0.269419     5.76309     90.1891    0.941694     1.83752     22.9354     27.4219      29.922     26.4855     6.25846     46.5803     23.6418     4.88152
    220.992     33.6185     2.97834     70.6809     42.0739     139.909    0.605676     22.6471     18.6295     25.7165     20.9327     60.9558     21.6376     24.6872     14.0261     241.974     71.9099      81.982     25.1596     244.427     171.208      218.73     36.8613     218.232     259.684     358.422   0.0326146     245.368       502.2     437.351     125.729      312.25     1332.29     703.112     150.429     550.529     2381.39     1558.96     39.2174     1848.24     6514.04     2618.67     4113.65       17160     839.158     27467.6     1207.27     36140.7       33295     14243.6     14243.5     33295.2     36140.7     1207.26     27467.6     839.118     17160.1     4113.65     2618.68     6514.01     1848.27     39.2129     1558.97      2381.4      550.53     150.428     703.096     1332.28     312.243     125.729     437.351     502.201     245.369   0.0326668     358.421     259.683     218.233     36.8615     218.725     171.207     244.426     25.1595     81.9818     71.9108     241.975     14.0247     24.6868      21.638     60.9558     20.9325     25.7194     18.6299     22.6472    0.605625     139.908     42.0722     70.6837     2.97844     33.6182     220.992
    8.53804     213.931     141.691     4.38175     11.4049 0.000298212     297.796     172.241    0.608211    0.771971     35.1994     288.464     203.269    0.875958     65.3353     92.4415     189.234     158.996      1.9471     162.175     344.901     225.318      80.405      28.459     504.013     504.143     170.146    0.943434     352.201     537.203     442.983     197.502     136.008     1388.01     1335.31     311.781     103.808     2316.82     3630.92     711.405     1158.29     8707.01      6945.3     856.964     27467.6     9004.34     36751.2     14228.9     85777.9     89971.8     89972.4     85778.1     14228.9     36751.1     9004.13     27467.6      856.91      6945.3     8707.08     1158.29     711.386     3630.91      2316.8     103.808     311.781      1335.3     1388.03     136.001     197.505     442.982     537.201     352.203    0.943653     170.147     504.136     504.013     28.4593     80.4053     225.315     344.898     162.174     1.94692     158.995     189.235     92.4406     65.3343    0.876066     203.269     288.463     35.1998    0.772065    0.607932      172.24     297.794 0.000299693      11.404     4.38254     141.693     213.931     8.53798
    1.48315     103.311     249.574     194.589      8.9732     70.9973     242.075      234.74     165.661     1.37143     360.486      217.76     171.058     27.9179     44.0287     163.705     396.779     55.9458     17.5392     8.99992     360.129     317.332     295.469    0.223963     171.934     413.148     718.679     198.146     5.68668     641.468     1052.08     793.703     195.499     378.961     1992.04     3021.13      617.31     416.999     3439.94     5455.06     2025.38     310.754     11969.8     16753.2     1207.27     36751.2     48707.6     38656.1     70622.1      199250      199249     70622.2     38656.1     48707.7     36751.3     1207.19     16753.4     11969.8     310.752     2025.37     5455.01     3439.97     416.978      617.31     3021.13     1992.05     378.973     195.508     793.707     1052.08     641.471     5.68666     198.137     718.682     413.153     171.935    0.224003     295.469     317.331     360.129     8.99963     17.5392     55.9472     396.779     163.703     44.0278     27.9183      171.06      217.76     360.485      1.3723     165.667     234.742     242.074     70.9958     8.97276     194.593     249.573     103.311     1.48321
    46.3056     69.2798     266.228     530.199      7.0196     199.922     135.819      394.61     200.672      18.672     108.041      390.11     171.835     118.445    0.528477     398.142     184.046     360.757     30.9466     38.6639     85.3958      711.71     209.689     114.482     1.83407     647.593     853.317     799.961     55.2724     289.073     1740.63     1591.73       468.2     5.67491     1649.78     3090.87     2691.12     581.676     775.871     6155.79     9773.55     3397.09     194.738     18942.5       36141     14228.8     38655.8      189344     30445.4      203072      203075     30445.4      189344     38655.8     14228.5     36140.7     18942.2     194.737     3397.09     9773.58     6155.79     775.895     581.711     2691.12     3090.88     1649.77     5.67273     468.209     1591.75     1740.63     289.071     55.2723     799.965     853.322     647.593     1.83391     114.482      209.69     711.707     85.3915     38.6638     30.9469     360.759     184.046     398.146    0.528209     118.445     171.834     390.109     108.041     18.6758     200.688     394.608     135.819     199.921     7.02144     530.204     266.225       69.28     46.3053
    22.0668     343.101     421.627     24.3542     64.9649  0.00555542     579.738     275.595     34.0526     41.2778     37.2129     262.534     611.309     100.491     4.13789     27.1404     645.482     417.168     181.803     7.43422     424.564     263.232     788.186     222.824     58.6965     385.646     1228.87     840.111     162.956     167.004     1050.66     2263.14     1315.86   0.0925042      290.73     2464.68     4691.13     2559.85     9.00638     3213.07     10545.4     13585.4     3504.33     903.605     33295.1     85780.4       70622       30445      997309       36876     36875.4      997310       30445     70621.9     85781.1     33295.3     903.538     3504.33     13585.4     10545.4     3213.14     9.00344      2559.9     4691.08     2464.67     290.731   0.0922496     1315.86     2263.12     1050.66     167.005     162.955     840.093     1228.88     385.633     58.6962     222.826     788.186     263.238      424.56      7.4341     181.804     417.166     645.481     27.1434     4.13679     100.492      611.31     262.531      37.213     41.2775      34.056     275.596      579.74   0.0055577     64.9715     24.3653     421.633       343.1     22.0667
    108.328     91.7617     131.452     197.378     6.61284     40.9956     46.2828     250.868     318.561     25.7766     47.1304     260.468     320.713     326.556     41.0155     171.825     416.296     642.247     285.867      1.1145     274.762     1112.11     667.267     143.053       34.54     642.934     971.483     790.744     169.032     65.4362     909.245     1657.55     1575.84      518.71      360.88      2667.5     4288.76      3311.3     519.732     1162.34     9104.39     16964.5     13775.5     607.371     14243.7     89971.9      199246      203075     36878.9 2.53383e+07 2.53385e+07     36878.9      203075      199246     89972.1     14243.9      607.45     13775.5     16964.5     9104.38     1162.43     519.718     3311.34     4288.76      2667.5     360.881     518.682     1575.89     1657.52     909.247     65.4361     169.031     790.659      971.49     642.914       34.54     143.052     667.271     1112.12     274.766     1.11445     285.867     642.246     416.297     171.837     41.0214     326.555     320.713      260.47     47.1302     25.7866     318.543     250.868     46.2828     40.9959     6.61407     197.464     131.481     91.7617     108.329
     108.33      91.763     131.452     197.381     6.61252     40.9955     46.2806     250.868     318.565     25.7757     47.1311     260.472     320.713     326.554     41.0163     171.828     416.292     642.242     285.869     1.11452     274.759     1112.11     667.268     143.053     34.5395     642.933      971.48     790.746     169.033     65.4357     909.245     1657.55     1575.84     518.716     360.881     2667.51      4288.8     3311.31     519.732     1162.34     9104.31     16964.4     13775.6     607.371     14243.7       89972      199247      203077     36877.8 2.53385e+07 2.53386e+07     36877.8      203078      199247       89972     14243.9     607.452     13775.5     16964.4      9104.3     1162.43     519.717     3311.34     4288.78     2667.51      360.88     518.687     1575.88     1657.53     909.245     65.4349     169.032     790.657     971.493     642.915     34.5398     143.053     667.268     1112.12     274.767      1.1145     285.868     642.241     416.291     171.838     41.0222     326.554     320.714     260.471     47.1311     25.7856     318.544     250.869     46.2813     40.9955     6.61455     197.465      131.48     91.7626     108.331
    22.0667       343.1     421.628     24.3543     64.9647   0.0055577      579.74     275.596     34.0527     41.2779      37.213     262.531      611.31     100.492     4.13793     27.1407     645.481     417.166     181.804      7.4341     424.563     263.233     788.186     222.826     58.6962     385.646     1228.88     840.111     162.955     167.005     1050.66     2263.14     1315.85   0.0925052     290.731     2464.67     4691.08     2559.85      9.0062     3213.07     10545.4     13585.4     3504.33      903.61     33295.2     85781.1     70621.9       30445      997310     36875.5     36875.7      997309       30445       70622     85780.6     33295.3     903.532     3504.33     13585.4     10545.4     3213.13     9.00332     2559.91     4691.13     2464.68      290.73   0.0922686     1315.87     2263.12     1050.66     167.004     162.956     840.093     1228.88     385.633     58.6965     222.824     788.186     263.237      424.56     7.43422     181.803     417.168     645.482     27.1428     4.13679     100.491     611.309     262.534     37.2129     41.2775     34.0558     275.595     579.738  0.00555542     64.9714     24.3649     421.633     343.101     22.0668
    46.3053       69.28     266.228     530.195     7.01941     199.921     135.819     394.608     200.672     18.6722     108.041     390.109     171.834     118.445    0.528434     398.142     184.046     360.759     30.9469     38.6638     85.3951     711.711      209.69     114.482     1.83391     647.595     853.322     799.957     55.2723     289.071     1740.63     1591.73     468.197     5.67493     1649.77     3090.88     2691.12     581.676     775.874     6155.76     9773.58     3397.09     194.737     18942.5       36141     14228.9     38655.8      189344     30445.4      203072      203075     30445.4      189344     38655.8     14228.4     36140.6     18942.2     194.738     3397.09     9773.55     6155.82     775.894     581.711     2691.12     3090.87     1649.78     5.67283     468.208     1591.75     1740.63     289.073     55.2724     799.964     853.319     647.593     1.83407     114.482     209.689     711.706     85.3914     38.6639     30.9466     360.757     184.046     398.146    0.528194     118.445     171.835      390.11     108.041     18.6762     200.687      394.61     135.819     199.922     7.02103     530.205     266.223     69.2798     46.3056
    1.48321     103.311     249.575     194.588     8.97279     70.9958     242.074     234.742     165.661      1.3715     360.485      217.76      171.06     27.9183     44.0282     163.704     396.779     55.9472     17.5392     8.99963     360.131     317.332     295.469    0.224003     171.935     413.144     718.679     198.147     5.68666     641.471     1052.08     793.697     195.501     378.962     1992.05     3021.13      617.31     416.999     3439.94     5455.08     2025.37     310.752     11969.8     16753.3     1207.27     36751.2     48707.7     38656.1     70622.2      199249      199249     70622.1     38656.1     48707.6     36751.4     1207.19     16753.3     11969.8     310.754     2025.38     5455.02     3439.96     416.977      617.31     3021.13     1992.04     378.974     195.509     793.711     1052.08     641.468     5.68668     198.138     718.684     413.152     171.934    0.223963     295.469     317.333      360.13     8.99992     17.5392     55.9458     396.779     163.701     44.0275     27.9179     171.058      217.76     360.486     1.37234     165.669      234.74     242.075     70.9973     8.97285     194.592     249.573     103.311     1.48315
    8.53763      213.93     141.693     4.38196      11.404 0.000303057     297.793     172.237    0.608011    0.772009     35.1989     288.466     203.269    0.875959     65.3344     92.4418     189.235     158.997     1.94694     162.174     344.897     225.319      80.404      28.459     504.009     504.144     170.143    0.943473     352.204     537.201     442.987     197.498     136.009     1388.01      1335.3     311.774      103.81     2316.81     3630.92     711.399     1158.31     8707.09     6945.21     856.993     27467.7     9004.15     36751.3     14228.6     85779.1     89972.2     89972.1     85779.1     14228.5     36751.4     9004.01     27467.7     856.945     6945.23     8707.08     1158.31     711.373     3630.89      2316.8     103.811     311.776      1335.3     1388.02     136.004     197.502     442.985     537.203     352.203    0.943547     170.145     504.137     504.007     28.4594     80.4046     225.316     344.897     162.175     1.94694     158.997     189.236     92.4417     65.3326    0.875911     203.269     288.463     35.1992    0.771996    0.607942     172.237     297.792 0.000303131     11.4037     4.38204     141.694      213.93     8.53806
    220.997     33.6177      2.9782     70.6847      42.076     139.905    0.605666      22.647     18.6295     25.7179     20.9312     60.9562     21.6375     24.6873     14.0255     241.974      71.911     81.9847     25.1589     244.427     171.208     218.734     36.8605     218.233      259.69     358.424   0.0326391     245.367     502.198     437.351     125.726     312.252     1332.29     703.106     150.425     550.533     2381.41     1558.95     39.2151     1848.26     6514.07     2618.64     4113.69       17160     839.111     27467.5     1207.19     36140.7     33295.5       14244     14243.9     33295.4     36140.7     1207.19     27467.6     839.073     17160.1     4113.69     2618.65     6514.05     1848.29     39.2098     1558.97     2381.41     550.533     150.425     703.098     1332.28     312.247     125.727     437.355       502.2     245.369   0.0326569     358.424      259.69     218.235     36.8609     218.724     171.208     244.426     25.1589     81.9837     71.9101     241.974     14.0245     24.6872     21.6364     60.9556     20.9317     25.7194     18.6309     22.6457    0.605679     139.905      42.075     70.6852     2.97868     33.6183     220.998
     4.8786     23.6432     46.5874     6.25821     26.4859     29.9235     27.4209     22.9376     1.83727    0.941263     90.1888     5.76298    0.269291    0.420267     26.3399     25.5201     146.789     70.1851     78.1921     51.8219      167.66     36.8017       56.44     289.403     184.275     19.4707      66.948     361.263     372.195     119.217     317.687      1185.5     708.793     83.2807     910.747     1978.17     1490.48    0.131701     3209.96     5580.12     443.561     6344.97     8298.09     242.127       17160      856.91     16753.4     18942.2     903.538     607.468     607.492     903.529     18942.2     16753.3     856.944     17160.1     242.114      8298.1     6344.94     443.563     5580.11     3209.99    0.131408     1490.48     1978.17     910.754     83.2781     708.791     1185.47     317.693     119.218     372.198     361.261      66.949     19.4706     184.276     289.398     56.4402     36.8017     167.661     51.8233     78.1926     70.1852     146.788     25.5224     26.3412    0.420298    0.269284     5.76283     90.1881    0.941626     1.83755     22.9371     27.4198     29.9235     26.4816     6.25724     46.5811     23.6439     4.87829
  0.0462823     1.46954    0.423365     40.3595    0.126814     3.10672     17.2595     6.10342     108.756     52.8681     16.4906     20.8599     31.8302     153.776       41.63    0.373291     167.402     29.2039     105.906     53.1166     116.765     105.037     257.632     35.2543     7.17987     135.335     544.172     202.335      18.408     505.963     1006.69     393.885     1.55841     805.575     1562.28     1015.07     188.905     2617.52     2669.07     4.73032     4987.35     2881.81     1760.07     8298.09     4113.64     6945.22     11969.8     194.739     3504.31     13775.6     13775.7     3504.33     194.738     11969.8     6945.19      4113.7     8298.15     1760.07      2881.8     4987.35     4.72862     2669.04      2617.5     188.907     1015.07     1562.28     805.586     1.55869      393.89     1006.69     505.963     18.4073     202.329     544.163     135.332     7.17982     35.2542     257.627     105.038     116.762     53.1179     105.906     29.2037     167.401    0.373104     41.6298     153.777     31.8305     20.8593     16.4906     52.8665     108.756      6.1038     17.2594     3.10648    0.126771     40.3608    0.423431     1.46935   0.0463133
    29.3227     38.6479     132.043     6.41196     3.36025     5.78066     56.1595      19.418    0.783058     32.3167     18.3437     77.5219     119.678     89.5449     31.1811     78.9509     263.742     266.025     19.1159     74.5554     253.924     371.136     100.647     10.6991     400.305     492.749     297.992     23.8995     796.625     1208.29     357.079      13.313      1043.6      1699.7      349.36      541.43     2141.36     1503.07     413.919     4814.11     343.297     4318.32     2881.81     6344.94     2618.68     8707.08     310.754      3397.1     13585.4     16964.6     16964.4     13585.3      3397.1     310.751     8707.06     2618.65     6344.91     2881.81      4318.3     343.298     4814.11     413.931     1503.09     2141.37     541.434     349.359     1699.69     1043.58     13.3107     357.079      1208.3     796.626     23.8954     298.001     492.744     400.308      10.699     100.648     371.132     253.918     74.5551     19.1159     266.024     263.743     78.9513     31.1816     89.5443     119.679     77.5213     18.3439     32.3193    0.783389     19.4179     56.1598      5.7806     3.36014     6.41135      132.04     38.6481     29.3229
    69.1581     32.9869     1.86539     101.645     2.26772     29.1483     38.7799     165.908     14.5585     13.2729     11.1561     168.336     155.039       8.643     67.8052     160.544     111.589     197.642     5.05457     338.453     301.571     262.344    0.860191     242.122     517.507     667.946    0.400927     721.795     853.726     301.362     3.26208     810.019     1297.05     129.732     414.002     1804.32     528.989     1132.76     2421.81     49.1026     3563.61     343.297     4987.35      443.55     6514.05      1158.3     2025.38     9773.55     10545.3     9104.35     9104.31     10545.4     9773.56     2025.38     1158.31     6514.03     443.561     4987.34     343.296     3563.63     49.1074     2421.78     1132.74     528.992     1804.32     414.003     129.729     1297.06     810.008     3.26242      301.36     853.721     721.809    0.401359     667.954     517.498     242.122    0.860299     262.346     301.567     338.452     5.05416     197.643     111.593     160.555     67.8035     8.64303      155.04     168.337     11.1557     13.2719     14.5591     165.908     38.7804     29.1471     2.26884     101.643     1.86577     32.9863     69.1588
    5.53899     21.9568     63.5669     31.7123    0.970489     72.2833     135.953     38.0846     91.0015     28.1926     575.083     80.3015      12.752     25.8364     213.464     171.762     157.375     100.019     111.873      111.08     330.763     4.86365     97.0999     451.747     379.149     9.46272     295.749     648.998     125.601     42.4829     631.162     569.001     3.42271     541.418     995.759     8.81806     1444.37     892.622     679.202     3390.54     49.1063     4814.08     4.72819     5580.13     1848.27     711.383     5455.04     6155.83     3213.14     1162.43     1162.44     3213.15     6155.81     5455.05     711.375     1848.29     5580.13     4.72856     4814.09     49.1073     3390.55     679.216     892.631     1444.36     8.81845     995.755     541.424     3.42197     569.009     631.163     42.4829     125.602     649.006     295.741     9.46179     379.147     451.749     97.1013     4.86478      330.76     111.079     111.871     100.019     157.374     171.759     213.463     25.8365     12.7517     80.3014      575.08     28.1931     91.0057     38.0835     135.951      72.284    0.970519     31.7126     63.5677     21.9559     5.53914
    34.8809     106.139     129.387     5.82462     41.0827     41.6128     128.844     77.9468     55.6087     133.286     59.9872      210.47     25.1699     190.815     134.978     182.603     30.0693     87.4264     361.563     167.222     71.2954     87.7035     443.766     124.006     45.9032     444.581     467.126     9.57383     102.671     553.081     282.072     138.372      825.84     594.283     240.315     1560.71     519.485     1459.31     2168.76     679.205     2421.79     413.933     2669.04        3210     39.2132      3630.9     3439.96       775.9     9.00335     519.705     519.713     9.00314     775.896     3439.97     3630.89     39.2099     3209.98     2669.04      413.93     2421.79     679.216     2168.71      1459.3     519.484      1560.7     240.317     594.268     825.834     138.369     282.072     553.082      102.67     9.57447     467.131     444.578     45.9029     124.003     443.765     87.7044     71.2893     167.224     361.562      87.426     30.0696       182.6     134.977     190.816       25.17     210.473     59.9879     133.287     55.6085     77.9473     128.844     41.6145     41.0851     5.82562     129.389     106.141     34.8803
    155.838     169.552   0.0164396     1.30233     98.4581     167.939     14.0955     13.1264     121.863     121.456     8.22461     48.5252     9.01745     99.6524     143.278     32.6359     73.7715     153.286     82.0538   0.0629475     149.775     557.428     66.8436      90.583     625.395     236.722     9.60728     117.399     849.617     124.202     340.932     740.793      209.27       391.9     1070.86     25.8043     1757.94     348.381     1459.29      892.65     1132.74     1503.09      2617.5    0.131512     1558.97     2316.79     416.979     581.711     2559.91     3311.34     3311.31      2559.9     581.709     416.977     2316.79     1558.96    0.131421      2617.5     1503.09     1132.75     892.634      1459.3     348.395     1757.94     25.8042     1070.86     391.909     209.272     740.804     340.941     124.201     849.614     117.404     9.60573      236.73     625.385     90.5845     66.8446     557.421     149.774   0.0629165     82.0596     153.284     73.7711     32.6384     143.285     99.6518     9.01748     48.5234     8.22501     121.453     121.869     13.1262     14.0961     167.943     98.4566     1.30218   0.0165248     169.551     155.839
      2.287    0.182191     10.6403     47.4731     26.7362     26.0802     4.39358     198.694     25.6983     1.73377   0.0208128     161.131     193.877     1.87803     79.6743     92.1302     107.778     72.8069     59.9259     328.143     134.859     19.8173     109.329     450.133     81.7972     2.94674     209.808     450.049     3.25892     242.767     390.835     18.4956     536.048     579.199     189.278     1637.48     8.79348     1757.95     519.492     1444.35      528.99     2141.37     188.905     1490.46     2381.39     103.807      617.31     2691.13     4691.09     4288.75     4288.77     4691.08     2691.13     617.311      103.81     2381.39     1490.47     188.908     2141.37     528.994     1444.36     519.484     1757.94      8.7929     1637.48     189.277     579.191     536.052     18.4964     390.834     242.766     3.25886     450.043     209.807     2.94658     81.7961     450.137     109.328     19.8163     134.862     328.145      59.925     72.8079     107.779     92.1285     79.6736     1.87819     193.875     161.131   0.0208223     1.73486     25.6981     198.696      4.3936     26.0801     26.7358     47.4748      10.639    0.182224     2.28697
    17.3121     123.878     97.7239      19.979   0.0829468     165.579     149.024     0.78341     17.0218     33.6431      252.62      27.972     52.2703      13.947     298.673     188.246     78.7407     141.313     283.909     233.269     63.6454     471.948     404.869     19.2957     46.0571     279.827     141.984     1.72355     443.244     260.275     109.602     771.394     189.165     691.909     1120.47     48.1384     1637.49     25.8021      1560.7     8.81681     1804.33     541.431     1015.07     1978.19     550.528     311.781     3021.12     3090.87     2464.68      2667.5      2667.5     2464.68     3090.86     3021.13     311.774     550.531     1978.17     1015.08     541.434     1804.32     8.81838     1560.71     25.8041     1637.48     48.1355     1120.47      691.91     189.169     771.404     109.601     260.275     443.244     1.72396     141.987     279.823     46.0571     19.2953     404.869     471.948     63.6467     233.268     283.914     141.314     78.7411     188.245     298.673     13.9467     52.2693     27.9718     252.622     33.6456     17.0213    0.783494     149.024     165.581   0.0830121     19.9791     97.7231      123.88     17.3118
    40.7223     172.801     369.214     4.48735     182.576     237.657     154.452     23.2671     110.993     196.436     127.965     116.863      174.41       173.7     50.2362     161.561      73.885     202.152     244.816     4.66415     288.383     58.6502     56.6106     26.5096     172.495     86.9494     15.6953     611.558     20.0555     225.408      483.52     48.0035      781.24     536.812     236.244     1120.46     189.277     1070.85     240.311     995.765     414.002      349.36     1562.27      910.75     150.428      1335.3     1992.05     1649.79     290.731     360.881     360.871      290.73     1649.79     1992.04      1335.3     150.425     910.753     1562.27     349.361     414.001     995.753     240.317     1070.86     189.277     1120.47     236.243     536.803      781.24     48.0069     483.522     225.409     20.0553     611.554     15.6947      86.952     172.496     26.5115     56.6101     58.6468     288.374     4.66404     244.816     202.153     73.8843     161.558     50.2388     173.697     174.407     116.861     127.962     196.451     110.991     23.2675     154.453      237.66     182.575     4.48965     369.227     172.803     40.7227
    157.941     205.559     3.04635    0.407133     89.6104     145.266     75.0398      6.3658     130.593     265.786     65.2697     36.1281     36.8493     242.184      99.131      218.69     102.032     45.1797     15.1382     144.066     37.6561     2.18889     234.968     30.8656    0.130019     183.509     394.127     46.0385     272.331     465.422     15.5843     1072.23     101.114     689.323     536.804     691.911     579.196     391.918     594.281      541.42     129.727     1699.69      805.59     83.2731     703.098     1388.02     378.975     5.67285   0.0922747     518.675      518.67   0.0922827     5.67266     378.976     1388.01     703.101     83.2781     805.591      1699.7     129.729     541.423      594.27     391.908     579.193     691.913     536.803     689.319     101.119     1072.24     15.5841     465.425     272.331     46.0404     394.126     183.511    0.130046     30.8664      234.97     2.18877      37.655     144.066       15.14     45.1805     102.033     218.701     99.1326     242.186     36.8484     36.1288     65.2709     265.785     130.592     6.36502      75.041     145.267     89.6113     0.40741     3.04667     205.564     157.943
    44.3956    0.986512     7.36161     77.7909    0.280473     10.7504     2.09267     70.0903     1.80632     3.42558    0.409532     40.4323      39.877     1.50506     40.1908     35.5563     30.7764     53.7819     243.618     24.6201     123.559     152.168     49.3101     12.8615     409.988     410.526     34.6246      409.11      357.92     169.412     606.435     1.30557     611.385     101.119     781.232     189.169     536.052     209.273     825.832     3.42162     1297.05     1043.58     1.55861     708.785     1332.28     136.001     195.507     468.213     1315.85     1575.88     1575.88     1315.86      468.21     195.507     136.003     1332.28     708.791     1.55872     1043.59     1297.06     3.42191     825.831     209.271     536.053     189.169     781.237      101.12     611.401     1.30564     606.436     169.412      357.92     409.114     34.6256     410.532     409.989     12.8612     49.3112     152.162     123.556     24.6204     243.613     53.7807     30.7778     35.5556     40.1898     1.50472     39.8784      40.433    0.409678     3.42496     1.80643     70.0908      2.0925       10.75      0.2802     77.7898      7.3623    0.986584     44.3948
  0.0275796     60.7579     29.6039     5.75832     23.1867     94.1405     170.138     1.15341     1.50311     171.062     156.316     7.90734     13.1749     210.809     202.903     51.6423      209.42     177.292    0.146283     100.858     65.8583     139.354     14.6933     353.402     49.6584     79.7316      231.57     2.08837     257.661     186.951     113.204     800.562     1.30613     1072.23     48.0057     771.401     18.4961     740.794     138.364      569.02     810.007     13.3104     393.891     1185.49     312.245     197.505     793.708     1591.75     2263.12     1657.53     1657.53     2263.12     1591.74     793.709       197.5     312.247     1185.48     393.893     13.3106     810.013     569.009      138.37     740.805     18.4965     771.403     48.0068     1072.24     1.30563      800.59     113.206     186.948      257.66     2.08821     231.565     79.7287     49.6583     353.402     14.6936     139.357     65.8581     100.857    0.146236     177.291     209.418      51.643     202.906     210.813     13.1749     7.90731     156.313     171.068     1.50266     1.15302     170.137     94.1415     23.1841     5.75846     29.6024     60.7607   0.0275644
    52.2523     16.2844     55.9524   0.0198241     77.8282     84.8636     62.9558     2.47236     139.538     130.516     62.3865     5.21253     477.553     138.643      15.563     12.9282     313.812     11.7247     80.6829      83.881     46.9134     111.516      93.221     15.3035     179.168     318.734     51.1581     401.855     271.784     346.972     807.989     113.212     606.434     15.5831      483.52     109.601     390.836     340.945     282.073     631.159       3.262     357.078     1006.69     317.697     125.729     442.984     1052.08     1740.62     1050.66     909.252     909.255     1050.66     1740.62     1052.08     442.987     125.727     317.691     1006.69     357.079     3.26243     631.161     282.071     340.941     390.834     109.601     483.522      15.584     606.436     113.206     807.996      346.97     271.787     401.861     51.1561     318.736     179.164     15.3044     93.2184     111.521     46.9169     83.8791     80.6851     11.7251     313.815     12.9275     15.5614     138.643      477.55     5.21235     62.3862     130.515     139.534     2.47252     62.9562     84.8623     77.8272   0.0198281     55.9499     16.2839     52.2514
    124.593     77.7635     3.66521     27.2883     182.903      39.585     15.6436     28.9824      50.391     22.0158     5.87642     95.3949     1.28851   0.0188817     9.17556     71.9493     141.708     23.6175     3.33533     2.67231     86.9956     65.3809    0.948608     560.329     106.627     189.871      214.59     62.3705     483.953     103.322     346.974     186.948     169.415     465.425     225.408     260.275     242.766       124.2     553.075     42.4828     301.361     1208.29     505.961     119.216     437.351     537.202     641.471     289.071     167.004     65.4353     65.4376     167.004     289.071     641.468       537.2     437.353     119.218     505.962     1208.29     301.359     42.4829     553.082     124.202     242.767     260.276      225.41     465.424     169.412     186.948     346.972     103.323     483.954     62.3698      214.59     189.869     106.625     560.331    0.948601     65.3741     86.9932     2.67206     3.33535      23.618      141.71     71.9477     9.17503   0.0188704     1.28853     95.3942     5.87654     22.0151     50.3926     28.9812     15.6442     39.5855     182.902     27.2866     3.66439     77.7634     124.593
     85.061     37.0759     11.2154     180.896    0.637427     1.04205     10.0171     106.034     3.96947     42.1041     68.9821  0.00442281     142.859      165.85     1.31794      210.49     95.4891     61.7533     35.2501     375.255      188.65     63.0407     542.957     3.01675     79.1992     149.464    0.500762     590.237      6.0574     483.953     271.785      257.66     357.912     272.328     20.0556     443.244     3.25894     849.613     102.668     125.604     853.728     796.625      18.408     372.202     502.197     352.203     5.68672     55.2719     162.956     169.031     169.036     162.954     55.2722     5.68659     352.204     502.198     372.201     18.4072     796.626     853.723     125.602      102.67     849.615     3.25888     443.243     20.0553     272.331     357.921      257.66     271.787     483.952     6.05718     590.241    0.500911     149.467      79.198     3.01729     542.955     63.0405     188.659     375.252     35.2502     61.7531     95.4893     210.484     1.31801     165.844     142.859  0.00442521     68.9814     42.1044     3.96895     106.034     10.0175     1.04218    0.636833     180.893     11.2158      37.076     85.0599
     2.9336     14.3995     1.35805     22.0415     1.35578     35.4221     2.99053     68.6513      12.583     76.4211     4.81311     225.612     26.0056     7.62881     18.3789      209.31     31.5731     11.7281     58.3274     79.1781     13.9556     67.0701     2.13604     90.6944     67.1803     243.774     472.026     41.3502     590.235     62.3676     401.856     2.08787     409.122     46.0389      611.55     1.72394     450.042     117.399     9.57418     649.009     721.806     23.8959     202.326     361.254     245.368    0.943679     198.138     799.967     840.092      790.65     790.664     840.096     799.964     198.138    0.943509      245.37     361.259     202.329     23.8951      721.81     649.003     9.57442     117.404     450.042     1.72399     611.554     46.0405     409.114      2.0882      401.86     62.3699     590.239     41.3512     472.031     243.772     67.1796     90.6947     2.13596     67.0654     13.9549      79.178     58.3272     11.7291     31.5731     209.311     18.3782     7.62934      26.006     225.608     4.81352     76.4186      12.584     68.6502     2.99098     35.4225     1.35552     22.0412     1.35831     14.3993     2.93377
    107.526     4.70951     30.5151     128.394     107.492     1.55166     59.0477     141.892     145.032     76.8982     208.881      11.716      14.495     133.967     75.2002     66.8248    0.537872     33.0157     1.83387     263.237     43.8856     190.511     572.286   0.0592871     500.913     281.555     9.44435     472.028    0.501019     214.591     51.1569     231.564     34.6259     394.128     15.6953     141.986     209.809     9.60625     467.127     295.738    0.401354     298.001     544.169     66.9505    0.032672     170.146     718.682     853.322     1228.89     971.495     971.491     1228.88     853.321     718.682     170.145   0.0326576     66.9496     544.165     298.003    0.401343     295.742     467.129     9.60569     209.808     141.987     15.6947     394.126     34.6255     231.566     51.1559      214.59    0.500906      472.03     9.44379     281.561     500.907   0.0592875     572.294     190.511      43.888      263.24      1.8336     33.0157    0.537911     66.8234      75.202     133.965     14.4961     11.7149     208.881     76.8993     145.032     141.899     59.0485     1.55151     107.493     128.394     30.5173     4.71006     107.524
    70.9098      1.0576     86.9598      63.681     80.0209     10.8873     175.689     45.6997     8.88377     38.9567     18.1137     3.72152     80.2563    0.326879     7.76322    0.241611     185.888     52.1933     307.027     9.36551     110.023     277.432     4.42313     67.9091     135.031     24.4006     281.563     243.771     149.467     189.868     318.737     79.7301     410.531     183.506     86.9521     279.825     2.94653     236.733     444.579     9.46115     667.958     492.749     135.329     19.4709     358.421     504.139     413.155     647.593     385.633     642.912     642.921      385.63     647.591      413.15     504.137     358.425     19.4705     135.332     492.745     667.958     9.46184     444.578      236.73     2.94658     279.825     86.9523     183.511     410.531     79.7285     318.736     189.869     149.466     243.772     281.561     24.4019     135.029     67.9087     4.42295     277.438      110.02     9.36489     307.035      52.191     185.889    0.241587     7.76266    0.326948     80.2537     3.72122     18.1125     38.9554     8.88395     45.6989     175.695     10.8878     80.0258     63.6901      86.956     1.05758     70.9088
   0.231072    0.542315     2.84794     23.8722      49.859    0.458593     12.1331     8.46367     47.3172     34.2326     72.0168     21.7664     6.20227     53.3137     68.6499     8.90509     156.191     64.2643    0.601305     161.362     129.302     146.976     193.111     13.7223     557.202     135.024     500.914     67.1797     79.1999     106.628     179.169     49.6544     409.993    0.129933     172.495     46.0572     81.7973     625.396     45.9032     379.154     517.507     400.309     7.17984     184.269     259.683     504.014     171.935     1.83393     58.6963     34.5408      34.537     58.6964     1.83412     171.935     504.005     259.691     184.277     7.17978     400.312     517.498      379.15     45.9028     625.385      81.796     46.0568     172.496    0.130039      409.99     49.6583     179.164     106.625     79.1984     67.1793     500.907     135.029     557.199     13.7218     193.108     146.978     129.307     161.361    0.600945      64.267     156.192     8.90364     68.6514     53.3139     6.20146     21.7667     72.0149     34.2329     47.3212     8.46272     12.1323    0.458582     49.8611     23.8712     2.84769    0.542595    0.231064
    2.80916      2.8438      42.744     162.056     1.00505     9.51711     212.309     167.295     84.9029     49.5713     91.8621     33.5762      111.04     63.7976     7.53368     16.4007     159.534    0.402379     394.687     9.36638     252.571     143.462    0.445417     276.933     13.7223     67.9095   0.0593571     90.6943     3.01673     560.328     15.3035     353.403     12.8623     30.8659     26.5096     19.2956     450.131     90.5849     124.003     451.751     242.121     10.6991     35.2541     289.398     218.233     28.4592    0.224006     114.482     222.825     143.051      143.05     222.823     114.482    0.223969     28.4589     218.235     289.398     35.2542      10.699     242.122     451.748     124.003     90.5836     450.136     19.2953     26.5115     30.8665     12.8612     353.403     15.3045      560.33     3.01727     90.6943   0.0592906     67.9091     13.7217     276.937    0.445182     143.466     252.562      9.3666     394.687    0.402215     159.531     16.3992     7.53435      63.797      111.04     33.5751     91.8605     49.5756     84.9044     167.296     212.305     9.51852     1.00481     162.061     42.7446     2.84386     2.80927
    34.7441     42.9979      207.68     90.5803    0.414983     167.344     42.6727    0.135564     5.40932     64.8831     4.72294     22.2551     30.8378    0.760006     16.6231     39.5074     341.551     168.216     74.6562     176.435     114.723     29.7388     186.196    0.445427     193.111      4.4234     572.296     2.13572     542.955    0.948634     93.2211     14.6941     49.3089     234.967     56.6109      404.87     109.328     66.8455     443.767     97.0982    0.860191     100.647     257.633     56.4408     36.8613     80.4048      295.47     209.687     788.189     667.275     667.276     788.191     209.688     295.468     80.4046     36.8608     56.4403     257.627     100.648    0.860293     97.1016     443.766     66.8446     109.328     404.869     56.6101     234.969     49.3113     14.6936     93.2185    0.948616     542.954     2.13595     572.296     4.42292     193.109    0.445194      186.19     29.7406     114.722     176.432     74.6547     168.216     341.555     39.5045     16.6231    0.760021     30.8368     22.2569     4.72253     64.8891     5.40976    0.135619     42.6697     167.345    0.415221     90.5816     207.677     42.9974     34.7412
   0.909499     24.8331     25.2561     2.79916    0.287562     1.38169     2.83866      0.7552     16.1046     81.4635     13.7792     41.1093     54.2814     265.361     2.19885      524.65     151.701     1.17137     262.648     177.748     100.697     47.1904     29.7349     143.469     146.975     277.435     190.514     67.0682      63.039     65.3739     111.519     139.353      152.16     2.18871     58.6484     471.949     19.8169     557.421     87.7031     4.86502     262.347     371.132     105.038     36.8023     218.726     225.314     317.332     711.705     263.238     1112.12     1112.13     263.236     711.705     317.332     225.315     218.723     36.8015     105.038      371.13     262.345     4.86478     87.7045      557.42     19.8161     471.949     58.6469     2.18873     152.162     139.357     111.521     65.3741     63.0406     67.0652     190.511     277.438     146.978     143.466     29.7404     47.2019     100.702     177.747     262.657     1.17168     151.702     524.649     2.19926     265.361     54.2813     41.1057       13.78     81.4616     16.1052    0.754752     2.83871     1.38151    0.288133     2.79824     25.2536     24.8333    0.909707
     23.118     26.9011     122.206     2.21641     10.5807     172.925     22.2065     46.5641      31.556     121.908     1.65477     102.943     183.482     3.08992     135.769     70.3567     4.30399     145.091     54.5249     101.478     35.1068     100.701     114.725     252.563     129.307     110.022     43.8855     13.9547     188.661     86.9935     46.9154     65.8573     123.557      37.657     288.376      63.648     134.862     149.766     71.2936     330.763     301.562      253.92      116.76     167.663     171.208     344.899     360.128     85.3914     424.562     274.771     274.769      424.56     85.3918      360.13     344.897     171.208     167.662     116.762     253.919     301.566     330.759     71.2895     149.774     134.863     63.6465     288.374     37.6552     123.556     65.8578     46.9168     86.9932      188.66     13.9548     43.8879      110.02     129.306     252.561     114.722     100.701     35.1113     101.477     54.5245     145.092     4.30323     70.3534     135.769     3.09021     183.485     102.942      1.6546     121.907     31.5571     46.5651     22.2072     172.927     10.5818     2.21628     122.203     26.9021     23.1183
    3.84527     69.2751      34.158     5.41852     78.1629    0.710964     4.77269  0.00712152     109.924     30.0094      21.166     0.33127     1.97789     163.208   0.0437548     321.567     60.9529     149.208     100.596     29.0278     101.479     177.749     176.435     9.36637     161.363     9.36476     263.237     79.1804     375.255     2.67234     83.8809     100.859     24.6202     144.066     4.66418      233.27     328.144   0.0628716     167.224     111.077     338.453     74.5558     53.1169      51.825     244.426     162.173     8.99967     38.6637     7.43416     1.11455     1.11489     7.43419     38.6637     8.99988     162.175     244.427     51.8231     53.1177     74.5556     338.453      111.08     167.224    0.062919     328.146     233.269     4.66402     144.065     24.6204     100.857     83.8794     2.67208     375.252     79.1781     263.241     9.36489     161.361     9.36651     176.432     177.748     101.477     29.0326     100.598     149.212     60.9534     321.569    0.043748     163.209     1.97797    0.331295     21.1651     30.0103     109.923  0.00707387     4.77348    0.710838     78.1637     5.41787     34.1595     69.2757     3.84456
    3.05173     4.39628     13.4627     3.20215     62.6638      13.989     14.2534     3.64437      199.21     13.6293     3.15573     90.4863     475.647     26.3892     310.382     22.7034     2.26837     62.8248     3.17534     100.596     54.5255      262.66     74.6563     394.688    0.601295     307.036     1.83425     58.3273     35.2502     3.33532     80.6829    0.146321     243.615     15.1381     244.817     283.912      59.926     82.0574     361.563     111.871     5.05462     19.1159     105.906     78.1927     25.1595      1.9469     17.5391     30.9471     181.805     285.868     285.862     181.803     30.9464     17.5393     1.94693     25.1588     78.1924     105.905     19.1158     5.05418     111.871     361.562     82.0597     59.9249     283.914     244.816     15.1399     243.613    0.146227     80.6853     3.33534     35.2502     58.3272     1.83358     307.036    0.600933     394.686     74.6551     262.657     54.5245     100.598     3.17409     62.8243     2.26755     22.7043      310.38     26.3872     475.654     90.4833     3.15651     13.6298     199.214     3.64502     14.2516     13.9879     62.6645     3.20216     13.4617     4.39647     3.05147
    36.0666     88.0418     24.5693      14.557     91.0077     80.4718    0.388107     94.6974     157.102     34.1113     152.898     210.847     32.9605     33.0762   0.0697863     14.4017     16.8134      220.93     62.8248     149.208     145.087     1.17175     168.215     0.40238     64.2643     52.1917     33.0136     11.7265     61.7535     23.6175     11.7247     177.291     53.7818     45.1793     202.152     141.314     72.8069     153.285     87.4267      100.02     197.642     266.025     29.2038      70.184      81.982     158.995     55.9468     360.758     417.167      642.25     642.248     417.166     360.757      55.946     158.997     81.9835     70.1858     29.2039     266.025     197.643     100.019     87.4259     153.284      72.808     141.313     202.154     45.1804     53.7803      177.29     11.7251      23.618      61.753      11.729      33.016     52.1907     64.2674    0.402205     168.215     1.17168     145.092     149.212     62.8242     220.922     16.8137      14.402   0.0697955     33.0773       32.96     210.846     152.897     34.1103     157.106     94.6947    0.388291     80.4774     91.0088     14.5556     24.5741     88.0431     36.0659
    21.3619     12.1517     1.68858      30.309    0.864039     5.63908     30.9842     42.7583     25.2559     21.0487      4.8954     63.6715     54.0039     54.2421      206.99    0.215778     233.162     16.8134     2.26835     60.9529     4.30356     151.697     341.549     159.533     156.191     185.888    0.537633     31.5738     95.4898     141.708     313.813     209.422      30.779      102.03     73.8849     78.7403     107.778     73.7701     30.0676     157.374     111.589     263.742     167.401     146.793     71.9111     189.235      396.78     184.046     645.488     416.296     416.292     645.485     184.047     396.779     189.236     71.9102     146.788     167.401     263.744     111.593     157.374     30.0696     73.7712     107.778     78.7408     73.8843     102.033     30.7778     209.418     313.814      141.71     95.4903     31.5732    0.537903     185.888     156.191     159.531     341.554     151.703     4.30321     60.9533     2.26753     16.8137     233.154    0.215842     206.994     54.2413     54.0033     63.6694     4.89538     21.0487     25.2557     42.7626     30.9859     5.63927    0.864129      30.309     1.68779     12.1522     21.3637
     18.992     63.8147      28.781     10.8022     10.8043     174.347     2.24923     131.952     55.7069     47.9474     255.892     163.223     142.396      73.276     4.38276      15.646    0.215625     14.4023      22.704     321.564     70.3534     524.649     39.5055     16.3992     8.90408    0.241577     66.8245     209.317     210.482      71.945     12.9271       51.64     35.5562     218.699     161.558     188.245     92.1294     32.6361       182.6     171.762     160.555     78.9527    0.373199     25.5216     241.973     92.4413     163.703     398.147     27.1432     171.838     171.841     27.1438     398.147     163.702     92.4419     241.974     25.5223    0.373101      78.951     160.555     171.758     182.599     32.6382     92.1283     188.244     161.558       218.7     35.5554     51.6429     12.9276     71.9475     210.484     209.311     66.8235    0.241597     8.90365     16.3993     39.5044     524.648      70.353     321.568     22.7043     14.4022    0.215843     15.6432     4.38262     73.2804     142.397     163.228     255.887     47.9409     55.7065     131.948     2.24902      174.35     10.8037     10.8031     28.7847     63.8151     18.9912
    74.4066     88.5347     3.36303     17.3173     196.321     4.60636     24.0228     52.5685      27.468     176.047     2.71943      111.47     14.6878     18.8092     35.9852      4.3824     206.992   0.0697565     310.381   0.0438167     135.772     2.20005      16.623     7.53362     68.6511     7.76305     75.2006     18.3789     1.31768     9.17533      15.562     202.906     40.1906     99.1321     50.2385     298.669     79.6723     143.282     134.982     213.463     67.8032     31.1816     41.6304     26.3403     14.0247     65.3343      44.028    0.528228     4.13674     41.0212     41.0235     4.13676    0.528222     44.0278      65.333     14.0245     26.3413     41.6299     31.1817     67.8035     213.463     134.978     143.284     79.6736     298.672     50.2387     99.1327       40.19     202.906     15.5615     9.17502     1.31801     18.3781     75.2021     7.76266     68.6508     7.53435     16.6231     2.19927      135.77    0.043749      310.38   0.0697967     206.993     4.38262     35.9852     18.8096     14.6885     111.476     2.71941     176.058     27.4683     52.5679     24.0222     4.60617     196.316     17.3179     3.36402     88.5338     74.4059
    24.3857   0.0155515     1.55391     25.1879     1.75173     24.0112     2.59062      57.591     117.847     55.1994     179.184     13.7771     47.7808     156.197     18.8086      73.283     54.2421     33.0765     26.3892     163.209     3.08963      265.37    0.759999     63.7979     53.3136     0.32693     133.965     7.62868     165.849   0.0188843     138.643     210.818      1.5051      242.19       173.7     13.9469     1.87803     99.6523     190.815     25.8358     8.64303     89.5451     153.776    0.420392     24.6867    0.876067     27.9184     118.445     100.492     326.555     326.553     100.492     118.444      27.918    0.875901     24.6872    0.420298     153.776     89.5442     8.64303     25.8364     190.816     99.6514      1.8782     13.9466     173.698     242.185     1.50474     210.813     138.642   0.0188716     165.843     7.62934     133.965    0.326956      53.314     63.7966    0.760026     265.361     3.09022     163.209     26.3872     33.0771     54.2412       73.28     18.8097     156.198     47.7801     13.7799     179.183     55.1956     117.851     57.5917     2.59024     24.0124      1.7524     25.1842     1.55411   0.0155824     24.3856
    8.74569     15.6787     9.95895      44.053     153.093     1.09259     111.861     108.343     1.69586     179.688     1.71894     36.9447     6.89634     47.7811      14.688     142.398     54.0041     32.9605     475.647      1.9779     183.485     54.2834     30.8379      111.04     6.20227     80.2588      14.496     26.0076     142.859     1.28852     477.554     13.1767     39.8775     36.8495      174.41       52.27     193.877     9.01737     25.1701     12.7527     155.039     119.678     31.8304    0.269425     21.6382     203.268      171.06     171.835     611.313     320.713     320.714     611.311     171.835     171.058      203.27     21.6366    0.269296     31.8306     119.679      155.04     12.7517       25.17     9.01736     193.876     52.2696     174.407     36.8484     39.8783     13.1748     477.548     1.28852     142.858     26.0062     14.4961     80.2537     6.20147      111.04     30.8369     54.2815     183.486     1.97798     475.655     32.9599     54.0036     142.398     14.6885     47.7804     6.89562     36.9444     1.71889     179.691     1.69537     108.347     111.861     1.09235      153.09     44.0511     9.95887     15.6789     8.74527
    115.544     10.3185     48.6548     114.101     6.46272     18.4921     42.5822     15.3122     104.582     133.517     18.3019      55.376     36.9448     13.7771     111.475     163.228     63.6715     210.848     90.4866    0.331268     102.947     41.1069      22.255     33.5763     21.7664     3.72113     11.7154     225.612  0.00442312     95.3945      5.2125     7.90758     40.4298     36.1284     116.863     27.9721     161.131     48.5268     210.469     80.3002     168.336     77.5216     20.8598     5.76308     60.9558     288.463     217.759     390.109     262.534     260.469     260.473     262.532     390.107     217.759     288.462     60.9559     5.76283     20.8592     77.5215     168.337     80.3019     210.472     48.5235     161.131     27.9718     116.861     36.1287      40.433     7.90731     5.21239     95.3938  0.00442572     225.609     11.7148     3.72122     21.7669      33.575     22.2568     41.1059     102.943    0.331302     90.4838     210.846     63.6695     163.228     111.475     13.7799     36.9445     55.3681      18.301     133.514     104.579     15.3112     42.5828     18.4916     6.46341     114.103     48.6542     10.3173     115.548
    2.10788     1.79274     22.7223     43.9413     25.1878      3.0254     164.859     60.2189     171.661     3.66365    0.741317     18.3019     1.71893     179.185     2.71906     255.885      4.8954     152.898     3.15572      21.166     1.65474      13.777     4.72289     91.8623     72.0168     18.1137     208.884     4.81283     68.9822     5.87639     62.3863     156.312      0.4097     65.2725     127.964     252.619    0.020812     8.22515     59.9849     575.074     11.1562     18.3437     16.4906     90.1894     20.9323     35.1999     360.484     108.041     37.2129     47.1315     47.1314     37.2135     108.041     360.484     35.1992     20.9317     90.1879     16.4905     18.3441     11.1557     575.079      59.988     8.22499   0.0208212     252.621     127.963     65.2708     0.40967     156.313     62.3864     5.87656     68.9814     4.81352      208.88     18.1125      72.015     91.8607     4.72254       13.78     1.65459     21.1651     3.15652     152.898     4.89539     255.888     2.71941     179.184     1.71887     18.3009    0.741771      3.6628     171.663      60.221      164.86     3.02477     25.1895     43.9422     22.7215     1.79269     2.10731
    141.626     10.0235     227.967     83.7719     1.09905     147.688     25.9512     36.1494     3.17614     14.5132     3.66364     133.517     179.687     55.1993     176.057      47.945     21.0487     34.1106     13.6298     30.0121     121.911      81.463     64.8823     49.5715     34.2342     38.9554     76.9003     76.4211     42.1037     22.0156     130.519     171.065     3.42499     265.789     196.451     33.6457     1.73495     121.453      133.29     28.1936     13.2725     32.3197     52.8657    0.941651     25.7195    0.772065     1.37235     18.6761     41.2774     25.7868     25.7867     41.2777     18.6759     1.37236    0.771999     25.7195    0.941609     52.8668     32.3192      13.272     28.1931     133.287     121.454     1.73482     33.6456     196.451     265.786     3.42496     171.067     130.515     22.0152     42.1047     76.4188     76.8991     38.9555     34.2328     49.5756     64.8894     81.4612     121.908     30.0102     13.6298     34.1102     21.0487      47.941     176.058     55.1958     179.692     133.514     3.66283     14.5124     3.17551     36.1459     25.9508     147.683     1.10064     83.7735     227.956     10.0229     141.629
    1.53771     57.1103     20.3821     1.15612     20.7596     2.46873     32.0092     33.5616     161.296     3.17604     171.659      104.58     1.69566     117.851     27.4689     55.7084     25.2543     157.106     199.214     109.923     31.5576     16.1038     5.40934     84.9032     47.3227     8.88353     145.036     12.5835     3.96932     50.3923      139.53     1.50294     1.80642     130.594     110.989     17.0213     25.6972     121.868     55.6064     91.0042     14.5596    0.783339     108.755     1.83753       18.63    0.607928     165.667     200.688     34.0552     318.543     318.544     34.0556     200.686      165.67    0.607917     18.6308     1.83756     108.755    0.783375     14.5592     91.0059     55.6086      121.87      25.698     17.0212     110.991     130.592     1.80645     1.50267     139.534     50.3927     3.96895      12.584     145.032     8.88394      47.321     84.9048     5.40979     16.1051     31.5573     109.923     199.213     157.106     25.2557     55.7063     27.4682      117.85     1.69535     104.579     171.662     3.17552     161.296     33.5615     32.0129      2.4679     20.7594     1.15637     20.3858      57.109     1.53758
    122.729     34.8117       57.57     39.2216     17.7265     107.035     85.0576      146.04     33.5633     36.1464     60.2189     15.3122     108.343     57.5909     52.5712     131.954     42.7584     94.6968     3.64438  0.00712027     46.5671     0.75514    0.135563     167.296     8.46362     45.7031     141.896     68.6549     106.034     28.9823     2.47236       1.153     70.0901     6.36535     23.2669     0.78342     198.694     13.1272     77.9483     38.0829     165.909      19.418     6.10333     22.9355     22.6473     172.241     234.741     394.607     275.595     250.868     250.866     275.595     394.608      234.74     172.237     22.6456      22.937     6.10383     19.4181     165.908     38.0833     77.9473     13.1262     198.696    0.783513     23.2676       6.365     70.0908     1.15302     2.47252     28.9811     106.034     68.6502       141.9     45.6988     8.46276     167.296    0.135626    0.754751     46.5652  0.00707475       3.645     94.6938     42.7627     131.948     52.5679     57.5916     108.346     15.3113     60.2211     36.1459     33.5613     146.057     85.0577     107.034     17.7274     39.2152     57.5671     34.8099     122.729
  0.0526786      30.544      5.4843     2.39636     4.49376     118.151     12.6507     85.0575     32.0082     25.9512     164.859     42.5822      111.86     2.59061     24.0243     2.24884     30.9843    0.388107     14.2534     4.77269     22.2053     2.83887     42.6728     212.308     12.1332     175.699     59.0452     2.99056     10.0171     15.6436     62.9559     170.137     2.09246     75.0393     154.452     149.025     4.39357     14.0952     128.843     135.951     38.7802     56.1595     17.2595      27.422    0.605636     297.793     242.075     135.819     579.737     46.2818     46.2803     579.738     135.819     242.075     297.795    0.605709     27.4198     17.2593     56.1599     38.7802     135.951     128.844     14.0961     4.39352     149.025     154.454     75.0408     2.09251     170.137     62.9562     15.6441     10.0174     2.99097     59.0484     175.695     12.1324     212.306     42.6697     2.83871     22.2069      4.7735     14.2516     0.38829     30.9859     2.24903     24.0221     2.59023     111.861     42.5823      164.86     25.9509     32.0127     85.0579      12.643     118.144     4.49126     2.39659     5.48367     30.5431   0.0526265
    8.61073     3.84645     14.5761     25.3252     193.636     41.5561     118.151     107.035     2.46747     147.691     3.02541     18.4922     1.09258     24.0113     4.60629      174.34     5.63907     80.4718      13.989     0.71096     172.929     1.38101     167.344     9.51703    0.458593      10.886     1.55207     35.4256     1.04205     39.5852     84.8635     94.1437     10.7496     145.261     237.657     165.579     26.0803     167.941     41.6153     72.2839     29.1484     5.78071     3.10673     29.9222     139.908 0.000299807     70.9959     199.922  0.00555396     40.9953     40.9963  0.00554888     199.923     70.9973 0.000303582     139.905     29.9236     3.10645      5.7805     29.1471     72.2844     41.6149     167.943     26.0803     165.581      237.66     145.267     10.7499     94.1414     84.8624     39.5857     1.04218     35.4225      1.5515     10.8877    0.458585     9.51855     167.345     1.38151     172.928    0.710831     13.9879     80.4774     5.63926     174.351     4.60617     24.0125     1.09235     18.4916     3.02478     147.683      2.4679     107.033     118.144     41.5573     193.631     25.3248     14.5769     3.84545      8.6106
    2.34287     20.1526     6.87133     181.618     13.6112     193.634     4.49309     17.7271     20.7583     1.09914      25.189     6.46295     153.094     1.75178     196.318     10.8039    0.864197      91.009     62.6651     78.1643     10.5806    0.287597    0.415225     1.00521      49.861     80.0224     107.494     1.35544    0.636993     182.906     77.8318     23.1861    0.280091     89.6074     182.572    0.083015     26.7356     98.4551      41.085    0.970069     2.26864     3.36021    0.126803     26.4854     42.0723     11.4039     8.97284     7.02144     64.9719     6.61424     6.61521      64.972     7.02107     8.97272     11.4037     42.0748     26.4816    0.126761     3.36017     2.26883    0.970529     41.0852     98.4566     26.7356   0.0830125     182.574     89.6104    0.280197     23.1842     77.8275     182.904    0.636825     1.35554     107.493     80.0256      49.861     1.00481    0.415219    0.288133     10.5818     78.1636     62.6645     91.0089    0.864121     10.8037     196.317     1.75237     153.091     6.46348     25.1895     1.10063     20.7594     17.7275     4.49129     193.631     13.6159     181.625     6.87102     20.1528     2.34266
    2.77661     183.212     138.359     8.86822     181.622     25.3269     2.39733      39.217     1.15609     83.7636     43.9401     114.103     44.0519      25.187     17.3167     10.8038     30.3096      14.556     3.20202     5.41856     2.21523     2.79927     90.5802     162.062     23.8734     63.6905      128.39     22.0405     180.895     27.2853   0.0197657     5.75812     77.7895    0.407294     4.49084     19.9794      47.475      1.3023     5.82596     31.7111     101.642     6.41117     40.3602     6.25846     70.6833     4.38257     194.593     530.204     24.3654     197.464     197.466     24.3649     530.206     194.591     4.38201     70.6851     6.25722     40.3606     6.41134     101.644     31.7124      5.8256     1.30219      47.475     19.9791     4.48966    0.407404     77.7897     5.75852   0.0198269     27.2866     180.893     22.0413     128.395     63.6899     23.8711      162.06     90.5814     2.79823     2.21628     5.41788     3.20217     14.5557     30.3089     10.8031     17.3179     25.1842     44.0512     114.103     43.9421     83.7735     1.15637     39.2151     2.39658     25.3248     181.625     8.87588     138.353     183.216     2.77622
     5.1052     117.176     4.58904     138.352     6.87123     14.5772     5.48532     57.5706     20.3826     227.949     22.7236     48.6541     9.95827     1.55385     3.36409     28.7845     1.68813     24.5704      13.463     34.1589     122.197     25.2559     207.678     42.7442     2.84776     86.9564     30.5155      1.3578     11.2158       3.664     55.9521     29.6045     7.36129     3.04682     369.226     97.7228     10.6378   0.0164558     129.386     63.5664     1.86569     132.043    0.423335     46.5801     2.97846     141.692     249.572     266.225     421.634     131.481     131.481     421.633     266.222     249.571     141.694     2.97872      46.581    0.423429     132.041     1.86575     63.5673     129.389   0.0165268      10.639     97.7225     369.224     3.04663     7.36235     29.6025     55.9498      3.6644     11.2158      1.3583     30.5174     86.9559     2.84766     42.7448     207.677     25.2535     122.203     34.1595     13.4618     24.5741     1.68779     28.7847       3.364     1.55411     9.95888     48.6539     22.7216     227.955     20.3858     57.5672      5.4837     14.5769     6.87105     138.354     4.58947     117.178     5.10533
    23.2446     207.863     117.168      183.22     20.1551     3.84643      30.544     34.8117     57.1125     10.0236     1.79273     10.3185     15.6787   0.0155523     88.5356     63.8198     12.1518     88.0408     4.39624     69.2751      26.898     24.8309      42.998      2.8438    0.542312     1.05781     4.71068     14.4009     37.0758     77.7632     16.2844     60.7578    0.986762     205.559     172.801     123.878    0.182192     169.554      106.14     21.9573     32.9866      38.648     1.46955     23.6419     33.6182     213.932      103.31     69.2804       343.1      91.762     91.7607     343.102     69.2799     103.311      213.93     33.6183     23.6437     1.46936     38.6479     32.9864      21.956     106.141     169.552    0.182225      123.88     172.803     205.563    0.986579     60.7607      16.284     77.7633      37.076     14.3993     4.71002     1.05757    0.542607     2.84387     42.9975     24.8335     26.9021     69.2757     4.39649     88.0431     12.1522     63.8151     88.5339    0.015582     15.6788     10.3173      1.7927     10.0229     57.1089     34.8098     30.5433     3.84548      20.153     183.216     117.178     207.849     23.2447
    10.9455     23.2445     5.10526     2.77712     2.34223     8.61071   0.0526812     122.728     1.53789     141.627     2.10787     115.544     8.74566     24.3857      74.403     18.9905     21.3617     36.0667     3.05174     3.84528     23.1192    0.910259      34.744     2.80915    0.231074     70.9084     107.521     2.93381     85.0615     124.593     52.2526     0.02761     44.3961     157.943     40.7226      17.312       2.287     155.839     34.8797     5.53901     69.1582     29.3228   0.0462819      4.8815     220.992     8.53802     1.48325     46.3051     22.0665     108.329     108.333     22.0669     46.3052     1.48313     8.53805     220.998     4.87823    0.046311      29.323     69.1591     5.53912     34.8802     155.839     2.28697     17.3118     40.7225     157.943     44.3947   0.0275654     52.2515     124.593     85.0599     2.93379     107.524     70.9089    0.231068     2.80927     34.7412    0.909708     23.1182     3.84458     3.05148     36.0659     21.3638     18.9911     74.4054     24.3855      8.7453     115.548     2.10732     141.629     1.53758     122.728   0.0526279      8.6106     2.34265      2.7762     5.10535     23.2447     10.9488
