wavelength: 632.8 R: 400 r0: 10 LinSpaced num: 100 100
     174003     5187.79     1223.89     664.392     134.799     208.749     230.744     229.208     24.1929      27.594     1.09368     91.5203      155748     23493.5     2619.31     749.152     351.675     228.679     10.6244     20.9163     76.7488     87.6098     270.403     1635.48     19646.1      249671     1852.99     258.359     53.4043     21.6043     67.8206     89.8635     128.914     71.4474      574.16     1415.95      8014.3     8328.56     9.92161     143.769     18.9578      170.59     359.965     234.467     294.816     197.845     255.591     555.013      2101.4     14317.7     14317.8     2101.42     555.011     255.683     197.839     294.879     234.454     359.964     170.581     18.9302     143.645     9.97831     8339.29     8014.13     1415.63     574.097     71.4021     128.889     89.8753      67.832     21.5776     53.4234     258.385     1853.03      249677     19645.8     1635.05     270.518      87.539     76.7061     20.8126     10.6509     228.663     351.649     749.078     2619.24     23492.8      155765     91.3397     1.09851     27.5954     24.2046     229.246     230.949     208.827     134.839     664.685     1223.83      5187.6      174001
    5187.79     2575.21     165.582     141.354     74.5809     131.677     11.0493     61.2592     10.0038     297.134     145.971     2141.49     308.714     2601.85     17.6017     87.8476     96.4188     223.933     26.2639   0.0255273     149.695      199.44    0.176552     85.8226     1676.55     42.2617     2710.52     393.818     222.351       76.38      2.6523    0.143091     168.662     150.668     21.2837      385.46     1418.18     5557.32     720.886     666.633     165.735     31.3244     22.5555      42.305     43.2786     34.9156    0.983435     543.402     1119.06     3696.66     3696.68     1119.07     543.408    0.977962     34.9095     43.2835     42.3077     22.5554     31.3324     165.721     666.739     721.115      5557.2     1417.79     385.507     21.2945     150.704      168.68    0.143616     2.65524     76.3969     222.324     393.797     2710.43     42.2527     1676.37     85.8368     0.17554     199.501     149.595   0.0263099      26.266     223.917      96.402     87.8926     17.6221     2601.85     308.664      2140.9     145.878      297.06     10.0082     61.2966     11.0588      131.67     74.5602     141.281     165.564      2575.3     5187.63
    1223.89     165.583     526.986     28.5354     11.5165     40.4705     145.821     53.7708     66.8682     11.4192     439.863      715.65     859.373     668.892     581.162     77.6943     19.0123     46.5484     81.0797     25.3143      126.51     1.40223     1.90583     378.181     637.848     744.539     603.342     354.868     82.5945     19.1767     131.176     44.5579     90.5942      19.776     123.891     561.883     288.337     1189.95     339.643     796.167     367.989     13.5723     25.7748     109.296     216.504     14.1136     61.3575     183.316     317.469     79.9483     79.9482     317.476     183.319     61.3975     14.1165     216.536     109.316     25.8014     13.5666      368.01     796.227     339.591     1190.02      288.36     561.958     123.824      19.754     90.5873     44.5572     131.192     19.1945     82.6159     354.933     603.343     744.465     638.061     378.287     1.90006      1.4058     126.513     25.2622     81.1244     46.5198     19.0192     77.7778     581.274      669.11     859.147     715.695     439.973     11.4188     66.8804       53.75     145.894      40.459      11.509     28.5764     527.393     165.588     1223.95
    664.391     141.354     28.5353     80.0142      7.0096     37.4285    0.872225     41.6932     17.6278     262.526     70.9902     129.565     217.834      70.684     80.5106     128.388     335.629    0.776163     53.0783     57.8806    0.267547     177.688     225.121     24.4758     50.7066      193.96     93.7347     100.445     185.972     19.5078     50.2446     21.1617      12.773  0.00122233     97.9222     17.5239     91.2626     692.076     263.137     3.42014     7.97161     117.053  0.00807128     29.6259    0.283303    0.994127    0.949652     350.691     238.315     157.581     157.584     238.317     350.685    0.947398    0.994551    0.284592     29.6239   0.0081846     117.044     7.96603     3.41763     263.073     692.106     91.2329     17.5164     97.9171  0.00134512     12.7714     21.1659     50.2478     19.5275     185.947     100.437     93.7112     193.917     50.7002      24.492     225.127     177.628    0.264604     57.8853     53.0768    0.772643     335.646     128.402     80.5289     70.7052      217.83      129.56     70.9659     262.495     17.6322     41.6999    0.869239     37.4348     7.00532     79.9702     28.5403     141.429     664.511
      134.8     74.5808     11.5166     7.00962     189.281   0.0123012     188.723     1.22058     6.17181      31.006     84.6971     27.3428     623.717     29.8251  0.00398306     12.1375     271.079     68.6194     35.1564     27.1534     20.4869     346.619     2.77405   0.0496008     17.3658     602.053     32.8134     174.818     7.14894     13.2848     13.6096     140.075      7.3057     122.118     7.65553     13.9522     140.211     187.508     12.0979      6.7377      11.047     8.21976     84.6888     27.0381     51.1674     15.7772     142.327     67.2344      45.455     58.7438     58.7454     45.4521     67.2359     142.321      15.781     51.1794     27.0338     84.6893     8.22053     11.0483     6.73678     12.1241     187.457     140.262     13.9627     7.65534     122.112     7.31395     140.019     13.6084     13.2828     7.15553     174.824     32.8042     601.886      17.382   0.0482061     2.77543     346.621     20.4469     27.1669     35.1203     68.6361     271.133     12.1398  0.00403017     29.8436     623.731     27.3236     84.6145     30.9904     6.16903     1.22106     188.686   0.0123734      189.34     7.00563     11.4937     74.5605     134.839
    208.747     131.677     40.4705     37.4285   0.0123007     78.6802     52.1534     402.021     80.0983     106.807     7.18473     56.4002     159.817     2.60261     64.7439     10.8992     1.76529     1.89721     1.93976      6.2043    0.703176     16.5377     5.91961     54.7464    0.620727     177.153     58.8622     14.1468     98.3898     77.9692     549.099     32.8355     22.7342     1.19511     34.8822     29.3461     158.356     241.561    0.329032     111.385    0.232668     9.88475   0.0984661     2.71474     351.618     71.7579     57.7819   0.0320873     301.699     100.264     100.264     301.708   0.0320515     57.7508     71.7621     351.631     2.71507   0.0984567     9.88583    0.231963     111.439    0.328927     241.547     158.374     29.3606     34.8841      1.1987     22.7298      32.832     549.146     77.9691     98.4075     14.1654     58.8299     177.154    0.617268     54.7588     5.93005     16.5557    0.705198     6.21378     1.94337      1.9079     1.76464     10.9046     64.7866     2.59919     159.834     56.4139     7.18429     106.803      80.088     402.038     52.1842     78.7607   0.0123725     37.3937     40.4471      131.67     208.826
    230.741     11.0492      145.82    0.872203     188.724     52.1537     296.418     1.89726     160.459   0.0109905     1.27135     13.3667     123.631     43.0057     100.517  0.00176646     23.5888     107.087     84.6307     22.2155     87.3303     26.7998      11.094     102.641      59.523     98.6143     7.58633     12.3929     42.0582     152.071     2.36542     269.252     89.1458     222.412     3.21614     148.909     20.8587     191.474      97.675     0.79833     5.58014     28.7489     9.79607      185.83     25.1061     133.177     46.2604     7.65569      16.362       22.89     22.8901     16.3635     7.65477     46.2368     133.174     25.0916     185.828     9.79261     28.7596     5.58307    0.798136     97.6889     191.474     20.8706     148.912     3.21624     222.436     89.1512      269.23     2.36416     152.063     42.0666     12.3891     7.58804     98.6563     59.4953     102.621     11.1125     26.7957     87.3855     22.2095     84.6035     107.131     23.5874  0.00182994     100.504     43.0073     123.603     13.3679     1.27075   0.0110663     160.465      1.8995       296.4     52.1481     188.711    0.869876     145.829     11.0588     230.694
    229.204     61.2592     53.7711     41.6934     1.22058     402.022     1.89727     234.546     13.5663     32.6808     11.8726     10.2885     34.3266     1.53278     16.5456     114.575     16.9642     26.0165     35.7878     26.3227     47.0246     6.20786     98.9673     16.7391     5.23482     65.5594     21.9422     12.2528     31.0012     15.9233     224.911     6.89795     311.795 7.28286e-05     72.6403     51.2724     86.4447     194.763     13.5769     25.3358     4.09677    0.351009     62.2417     61.9682     27.9539     91.5436     28.2275     70.0479     194.971    0.259266    0.259278     194.964     70.0495     28.2049     91.5327     27.9546     61.9736     62.2314    0.351001     4.09285     25.3508     13.5788     194.719     86.4707     51.2657     72.6634 7.92109e-05      311.77     6.90044     224.898     15.9392     31.0068     12.2439     21.9468     65.5199     5.25385     16.7264     99.0047     6.21857     47.0256     26.3105     35.7894     26.0227     16.9687     114.622     16.5085     1.52797     34.3873     10.3031      11.895     32.6987     13.5829     234.379     1.90143     402.028     1.21582     41.7414     53.7329     61.2738     229.167
    24.1926     10.0039     66.8681     17.6278     6.17182     80.0984     160.459     13.5664     6.78301     112.676     136.636     197.845     113.643     41.1434     115.404      9.8449     45.7279    0.808067     7.13144     13.7307     2.32176     65.6424     2.92409     111.538     63.3889     89.5506       219.4     128.102     72.3569     41.6777     3.90986     120.173     121.237     2.17823     4.77651     66.0242     10.4404     45.9042     32.5967     112.552     80.4313     23.1749     46.7621     62.6968     83.4582     7.17066     141.038     2.92974     121.672     12.5789     12.5781     121.684     2.92973     141.064     7.17318     83.3923     62.6925     46.7502     23.1703     80.4638     112.547     32.6075     45.9101     10.4344     66.0172     4.77859     2.18392     121.267      120.18     3.91229     41.6831     72.3733     128.105     219.394     89.5039     63.3501     111.606     2.92528     65.5994     2.33276     13.7302     7.12498    0.805267     45.7112     9.86535     115.418      41.149     113.636      197.69      136.64     112.655     6.77245     13.5784     160.419     80.0877     6.16903     17.6155      66.847     10.0082     24.2042
    27.5937     297.135     11.4192     262.525     31.0059     106.808   0.0109871     32.6807     112.676     96.3503     120.538     30.6877     1.43919     59.5396     91.9086     15.6235      83.304     77.1204     30.7248     33.4442     94.5634     37.9897     38.5351      53.716     134.694     2.90048     12.6017     99.1789     30.7535     53.4431     32.6173     4.75583     56.6869     14.9043     370.692     11.1962     390.675     44.3842     41.8972     36.1669     187.103     16.1589     1.45657      37.931    0.249464    0.284149      27.662     127.699      387.21     6.01276     6.01273     387.198     127.698     27.6461    0.283868    0.248164     37.9264     1.45444     16.1574     187.091     36.1829     41.9269     44.3809     390.613     11.2005     370.692      14.892      56.667     4.76093     32.6217     53.4343     30.7336      99.157     12.5892     2.90338     134.726     53.7156     38.5347     38.0009     94.5141     33.4384      30.715     77.0933     83.3495     15.6124     91.8896     59.5405     1.43223     30.6927     120.526     96.3725     112.655     32.6651   0.0102349     106.803     30.9905     262.604     11.4335     297.063     27.5949
    1.09363     145.971     439.863     70.9903     84.6973     7.18475     1.27134     11.8726     136.636     120.539     961.509     185.439     4.91576     5.17358     706.701     121.491     117.391     34.5974     7.99036     8.72388     76.3217     116.165     33.1623     753.233     42.5173     24.4684     155.139      952.93     121.712     71.6398     8.75363     4.58867     8.65437     52.8577     55.8192      325.56       24.24     1.47168     784.889     269.949     48.1612     7.72174     1.25534     19.7871     6.69997     1.89009     2.07433     201.242     541.727     459.078     459.078      541.73     201.245     2.07546        1.89     6.70301     19.7946     1.25356     7.71863      48.148      269.97     785.007     1.47672     24.2199     325.564      55.812      52.863     8.64246     4.58215     8.75139     71.6658       121.7     952.749     155.127     24.4521     42.5125     753.355     33.1603     116.166     76.3118     8.71765     7.99592     34.5745     117.359      121.54     706.778      5.1669     4.90744     185.451     961.364      120.52     136.591     11.8874     1.27145     7.17562     84.6965     70.9789     439.909     145.928     1.09491
    91.5203     2141.49     715.651     129.565     27.3427     56.4002     13.3667     10.2885     197.846     30.6876     185.438     1195.71     2021.91      2749.5     423.647     282.075      12.768     28.7615      11.633     14.1526     33.0018   0.0350374     460.135     817.535     2614.44      2522.4     1791.14     53.4097   0.0574302     147.261     7.58676     10.8724     36.7939     1.80958     193.151     489.831     1281.66     48.1184     1290.18      14.311      8.8133     227.454   0.0460295     6.76423     49.8002     4.28967     226.358     176.186     1100.21     772.695     772.693     1100.21     176.187     226.376     4.29102     49.7932     6.75858   0.0453708     227.408     8.80226     14.3169      1290.5     48.1255     1281.35     489.737     193.137     1.80731     36.8003     10.8692     7.58875     147.288   0.0566519     53.3829     1791.02     2522.35     2614.32     817.571     460.145   0.0349287     32.9634     14.1561     11.6271     28.8053     12.7716     282.035     423.486      2749.6      2021.7     1196.05     185.515       30.67     197.814     10.3011     13.3805     56.4407     27.3677     129.596     715.685     2141.43     91.5652
     155749     308.714     859.375     217.835     623.715     159.819      123.63     34.3266     113.643     1.43921      4.9158     2021.91     304.841     3766.08     1609.95     331.167     126.841     9.74714     72.5687     8.22268     50.3784      34.309     170.596     1399.54     13907.8     20908.9     3515.91     272.265     47.5402     7.81067     1.34059     36.9301     42.6572     551.323     264.232     1321.69     2788.59      104390     7189.59     104.973     115.448     19.8388     54.9102     112.316     74.8191     464.938     409.205     603.864     249.684     36762.1     36762.2     249.695     603.856     409.162      464.92     74.7921     112.324     54.8955     19.8364     115.446      105.01     7190.78      104386     2789.14     1321.89     264.216     551.468     42.6571     36.8794     1.33863     7.81082     47.5542      272.24        3516     20912.2     13907.7     1399.61     170.615     34.3119     50.4874     8.22012     72.5258     9.76081     126.813     331.173     1610.03     3765.97     305.412     2021.32     4.92165     1.44454     113.539     34.3505     123.593     159.888      623.73     217.975     859.141     308.765      155751
    23493.6     2601.85     668.887     70.6842     29.8252     2.60261     43.0058     1.53275     41.1435     59.5397     5.17363     2749.49      3766.1     4980.18     1068.38     62.1142      13.628     79.9644     35.5232     27.3734     99.3764     48.8257     3.16206     1174.14     8545.26     1026.95     2113.72     47.9535     27.1782     65.9469     2.83833     21.7792    0.277343     4.42548     17.5543     735.357     770.738     25205.4     790.909     39.7296      118.13     3.24468     17.2839     1.20103      2.2888     3.42355     39.8977     352.562     11.5178     8557.75     8557.75     11.5148     352.555     39.8886     3.42274      2.2919     1.20088       17.28     3.24012     118.076     39.7648     790.566     25205.8     770.475      735.44     17.5564     4.41754    0.276419     21.7854     2.83733     65.9383     27.1771     47.9981     2113.66     1026.67     8546.02      1174.1     3.16001     48.8613     99.3893     27.3527     35.5178     79.9756     13.6215     62.1534     1068.35     4979.82     3765.07     2749.45     5.18695     59.5406     41.1487     1.52922     43.0188     2.59916     29.8433     70.6921     668.745     2601.85     23492.8
    2619.32     17.6018     581.162     80.5108  0.00398233     64.7437     100.517     16.5455     115.404     91.9094     706.703     423.648     1609.95     1068.37    0.145013     145.771     5.32071      16.194     11.7189     1.69717     41.2148    0.302457     55.9592     112.469      1117.2      1640.6     146.646     552.307     129.858     116.801     58.8926     40.3832     106.831     11.2853     9.58216     380.827     11.4428     2428.67     586.699     35.5913     12.7909     168.693      20.558     65.9527     268.699     13.9716     166.641     31.9937     205.191     2.74148     2.74171     205.207     31.9897     166.581     13.9704     268.745     65.9546     20.5814     168.683     12.7842     35.6019     586.818     2428.56     11.4636     380.824     9.57833     11.2872     106.818     40.3886     58.9182     116.784     129.903     552.248     146.688      1640.6     1117.03     112.431      55.944     0.30401     41.2543      1.6955     11.7375      16.246     5.32578     145.703    0.135923     1068.45     1610.03     423.541     707.061     91.9057     115.378     16.5375     100.482     64.7589  0.00392564     80.5055     581.197     17.6091      2619.3
    749.152     87.8474     77.6943     128.388     12.1376     10.8992    0.001766     114.575     9.84491     15.6235     121.491     282.072     331.166      62.114     145.771     16.2286     7.62007      18.793     17.8197     6.20401     5.36344     17.7729     1.40623     154.609     13.9457     398.212     183.817      317.35    0.330327     57.0591     156.837     6.97157     5.74788     50.2641     167.055    0.970193     20.6213     780.194     339.711     3.48224     245.297     47.8271     144.672     1.29478     24.7324     134.717     16.8865     30.4941     435.952     205.864     205.868      435.95     30.4945     16.8829     134.725     24.7354     1.29426     144.659     47.8354     245.288     3.48083     339.804     780.225     20.6073     0.96789     167.071      50.268     5.74769     6.97911     156.859     57.0541    0.329204     317.439     183.819     398.272     13.9468     154.645     1.40116     17.7767     5.35645     6.20429     17.8304      18.793     7.64493     16.1959     145.752     62.0803     331.355     282.155     121.486     15.6382     9.84249     114.552  0.00175647     10.9003     12.1379     128.469     77.7252     87.8621     749.158
    351.673     96.4186     19.0124     335.631     271.078      1.7653      23.589     16.9642     45.7278     83.3036     117.391      12.768      126.84     13.6281     5.32067     7.62013    0.825724     25.0494    0.950375     14.0348     21.5707     1.94285     1.13284    0.144739     13.1173     141.386     58.6511     146.852     149.707     5.43707     12.0846     23.7825     2.15869     387.825     147.505     12.8899     111.239     273.181     129.583     28.3877     32.8592     104.327     7.14835     33.9645     8.82172     80.7055     11.5529     84.3817     34.5977     154.004     154.003     34.5968     84.3837      11.555      80.707     8.82194     33.9673     7.14595     104.322     32.8657     28.3841      129.66     273.174     111.252      12.894     147.502     387.718     2.15896     23.7665     12.0864     5.43028     149.635     146.824     58.6541     141.342     13.1043    0.147196     1.13338     1.94363      21.497     14.0598    0.942666     25.0563    0.819996     7.62591     5.32491     13.6298      126.78     12.7706      117.43     83.3722     45.7635      16.953     23.5959     1.75614      271.12      335.64     18.9594     96.4276     351.723
     228.68     223.933     46.5483    0.776162     68.6192     1.89723     107.087     26.0164    0.808064     77.1204     34.5975     28.7615     9.74715     79.9644     16.1938     18.7929     25.0493     286.694     148.743     163.419     341.244     7.74688     5.18544     21.0131     108.279     15.7965     36.8787     34.6352     53.9018   0.0136455     12.5437      58.085     7.37007     85.9004     1.38877     45.5034     179.221     160.797     23.7505     88.3426     16.4285     47.4926     122.884     29.9376     3.32859     20.4193     90.1475    0.315786     365.573     47.7786     47.7775     365.576    0.315596     90.1429     20.4206     3.32867     29.9366      122.85     47.4852     16.4377     88.3494      23.744     160.791     179.219     45.4871     1.39201     85.8905     7.36968     58.0895     12.5529   0.0135481     53.8898     34.6376     36.8876     15.7733     108.233     21.0077     5.19012     7.74041     341.276     163.437     148.735     286.975     25.0409     18.8106     16.2115     79.9757     9.74924      28.723     34.5892     77.0937    0.805261      25.989      107.08      1.9079     68.6359    0.777827     46.5015     223.918     228.664
    10.6237     26.2639     81.0796     53.0781     35.1564     1.93976     84.6311     35.7878     7.13142     30.7247     7.99035      11.633     72.5687     35.5231     11.7188     17.8198    0.950382     148.744     26.3835    0.930299     53.6807    0.422518        14.9     14.5239     34.0899      46.191     10.5721    0.154543     59.0713   0.0109195      21.388     80.2419    0.428534     115.394     70.2848     119.112     21.5161     14.7985     66.2219     11.9021     14.3605      70.485     25.8523     85.1607     40.3261     3.01295     12.2464     102.023   0.0530745     10.0335     10.0331   0.0529425     102.025      12.235     3.01138     40.3417     85.1636     25.8597     70.4976     14.3552     11.8939     66.2066     14.8067     21.5238     119.103     70.2741     115.432       0.429     80.2262     21.3863   0.0110055     59.0677    0.154318     10.5691     46.1885     34.0858     14.5252     14.9117    0.424016     53.6599    0.928006     26.3777     148.702    0.946134     17.8131     11.7343     35.5131     72.5807     11.6418     8.01266     30.7173     7.12821     35.8228     84.5884     1.94139     35.1425      53.063     81.0581     26.2591     10.6317
    20.9161   0.0255264     25.3142     57.8808     27.1534     6.20434     22.2155     26.3228     13.7308     33.4442     8.72391     14.1527     8.22271     27.3732     1.69717     6.20402     14.0349     163.419     0.93029     6.05353     57.4751     16.2773     10.0857    0.394663     23.6458     1.38153     11.3905     3.58827     56.9227     2.18297     27.4286     21.8505      4.5203     111.078     70.2608      51.393    0.651614     19.3035     27.5476     47.2433     28.5264     129.417     57.4883     29.6577     58.6154     15.5112     14.8764     68.0709     14.7193     5.46204     5.46243     14.7232     68.0668     14.8765     15.5096     58.6423     29.6518     57.4837     129.433     28.5193     47.2189      27.532     19.3084    0.655321     51.3871     70.2463     111.114     4.52098     21.8263     27.4216     2.18519     56.9378     3.58061     11.3908     1.37557     23.6785    0.394438     10.0724      16.266     57.4957     6.04431    0.928808     163.378     13.9928     6.20311      1.6928     27.3857     8.20475      14.151     8.72894     33.4494     13.7218     26.3275     22.2112     6.21121     27.1607     57.8778     25.2906   0.0256173     20.9417
    76.7491     149.694      126.51    0.267547     20.4868    0.703178     87.3301     47.0245     2.32175     94.5637      76.322     33.0017     50.3784     99.3764     41.2149     5.36343     21.5707     341.246     53.6809     57.4753     362.664     3.31541     17.4697     39.2779     117.366     32.9709     44.8611     90.6506     75.9094     1.80538     24.9318     51.3189     15.6266     18.9154    0.747475     115.889      107.05     40.3974     5.00246     55.5968     5.39475     18.2902     151.953     18.5589     9.41674     31.3626     96.1196     9.73879     200.243     21.8571     21.8568     200.243     9.73771     96.1072     31.3616     9.41906     18.5605     151.928     18.2882     5.39901     55.5907      4.9999     40.3842     107.043     115.865    0.746419     18.9106     15.6313     51.2891     24.9412     1.80556     75.9218     90.6215     44.8805     32.9757      117.38     39.2614      17.474     3.31442     362.492     57.4666     53.6907     341.222     21.5717     5.36406     41.2069     99.4051     50.3996     32.9785     76.3031     94.5673     2.31897     47.0234     87.3376    0.707346     20.4777    0.267458     126.544     149.688     76.7331
    87.6108      199.44     1.40224     177.688     346.619     16.5378     26.7998     6.20787     65.6425       37.99     116.164   0.0350385      34.309     48.8255    0.302454      17.773     1.94286      7.7469    0.422516     16.2774     3.31541     12.2924     14.8053     17.7112     35.1328     46.3662     17.9171     167.462     98.4518     20.2645     9.98292      35.179      22.467     437.606     49.8135    0.706627     195.251     49.0529     45.9129     7.77543  0.00439336     123.695     14.2354     20.3105     21.0471     33.4212     1.12778     81.2812     92.5984     94.4751     94.4757     92.6054     81.2781     1.12847     33.4209     21.0431     20.3065     14.2384     123.704   0.0045301     7.77361     45.9202     49.0405     195.249    0.708683      49.817     437.597      22.463      35.177     9.98506     20.2623     98.4465     167.457     17.9199     46.3645     35.1323     17.7236     14.8125     12.2884     3.31157     16.2852    0.420542     7.74307      1.9395     17.7643    0.300825      48.828      34.321   0.0342626      116.13     37.9946     65.6261     6.21554     26.7847     16.5321     346.654     177.625      1.4008     199.423     87.6413
    270.405    0.176551     1.90585     225.123     2.77405     5.91961     11.0941     98.9673     2.92412     38.5349     33.1623     460.137     170.596     3.16203     55.9593     1.40621     1.13283     5.18549     14.9001     10.0857     17.4697     14.8054     46.0756     51.3698     6.74157     233.177     394.701     141.375     17.0248     53.8282     139.948     35.1816     8.22884     35.4734      198.73     43.4623     20.8198     297.364      431.13     61.2812      178.05     54.7165     106.477     5.48202     21.9557     113.984     39.6652    0.173052      305.29     306.523     306.528     305.291    0.173558     39.6662     113.986     21.9655     5.47847     106.468     54.7323      178.05     61.2785     431.109     297.401     20.8422     43.4621     198.724     35.4793     8.22229     35.1865     139.958     53.8456     17.0378     141.438     394.697     233.185     6.73691     51.3508     46.0678     14.8166     17.4814     10.0755     14.9139     5.18539     1.13487     1.39724     55.9744     3.16743     170.633      460.13      33.164     38.5299     2.91878     98.9682     11.1221     5.91837      2.7756     225.151     1.90681    0.174925     270.413
    1635.48     85.8223     378.182     24.4759   0.0495977     54.7463     102.641      16.739     111.538      53.716     753.232     817.532     1399.53     1174.13     112.469     154.608    0.144743     21.0131     14.5238     0.39467     39.2781      17.711     51.3699     404.184     991.438     1550.49     500.547     703.243      103.53     136.211      70.284      42.175     79.4875     26.3125    0.924487     164.067     249.574     1375.39     47.4481      15.733     26.9862     231.619     8.37599     117.894      323.36     19.3353     324.293     77.5533     662.813      213.36     213.359     662.831      77.555     324.282     19.3353     323.399     117.899     8.37873     231.614     26.9746     15.7219      47.425      1375.4      249.58     164.011    0.924068     26.3309     79.5027     42.1827     70.3022     136.214     103.518     703.347     500.574     1550.48     991.477     404.467     51.3265     17.7049     39.2792     0.39793     14.5246     21.0289    0.143002     154.668      112.39     1174.23     1399.56     817.481     753.392     53.7538      111.54     16.7411     102.607     54.7383   0.0499067     24.4914     378.312     85.8359     1635.39
    19646.2     1676.56      637.85     50.7063     17.3658    0.620728     59.5233     5.23478     63.3889     134.694     42.5175     2614.44     13907.8     8545.26      1117.2     13.9457     13.1173     108.279     34.0899     23.6457     117.366     35.1326     6.74164     991.445     10718.2     8584.55      2545.1     4.13967      107.71     87.5647      2.4631     30.3281     9.88793     2.56515     7.90891     563.123     152.535     19344.5     2898.67    0.703172     205.931     19.5712     29.3753     12.1715    0.169305     1.42032     17.4737     412.344     15.4784     14160.1     14160.1     15.4779     412.364     17.4753     1.42084    0.169157     12.1677     29.3689     19.5567     205.964    0.700985     2897.78     19344.4     152.318     563.084      7.9083     2.56666      9.8866     30.3288     2.46301     87.5485     107.691     4.12959     2545.14     8583.66       10719     991.231     6.75924     35.1409     117.434     23.6647     34.0806     108.233     13.1242     13.9624     1117.34        8546     13907.7     2614.05     42.5491     134.726     63.3504     5.24851     59.5399    0.617263      17.382     50.7273     637.644     1676.37     19645.8
     249670     42.2621      744.54      193.96     602.052     177.153      98.614     65.5601     89.5507     2.90044     24.4681      2522.4     20908.8     1026.95      1640.6     398.211     141.385     15.7966     46.1908      1.3815     32.9707     46.3658     233.177     1550.49     8584.55     57079.4     3671.74     336.107     90.5922     2.73665     9.97463     28.0826     63.8045     525.517     233.193     1235.69     1790.21      225150     7782.16     134.063     60.2551     4.55588     63.8909     131.419      93.826     420.684     325.736     449.628     152.925     43912.8     43912.9     152.926     449.639     325.725      420.69     93.8045      131.41      63.896     4.55545     60.2156     134.182     7782.68      225151     1790.81     1235.67     233.191     525.536     63.7995     28.0262     9.96502     2.73184     90.5923     336.061     3671.88     57083.2      8584.5     1550.21     233.131     46.3021     33.0094     1.37471     46.2129     15.7897     141.356      398.24     1640.61     1027.01     20912.4     2522.08     24.3962     2.89358     89.5122     65.5697     98.6247     177.152     601.936     194.122     744.447     42.2599      249671
       1853     2710.52     603.344     93.7347     32.8133     58.8621     7.58632     21.9423       219.4     12.6018     155.139     1791.13     3515.91     2113.72     146.646     183.817     58.6509     36.8786      10.572     11.3905      44.861     17.9172     394.699     500.547     2545.09     3671.73      1993.8     23.3584     4.77307     142.097     23.6138     6.33774     51.5256     8.05652     198.938      525.28     2155.68     1656.69     2189.14     88.7956      1.1003     234.343  0.00761209     1.07251      17.856     1.02228     149.502     212.129     1037.45     48.7692     48.7681     1037.46      212.13     149.521     1.02231     17.8598     1.07383  0.00745409     234.343      1.1016     88.8214     2189.25     1656.58     2155.53     525.199     198.934     8.04983     51.5381     6.34094     23.6154     142.095     4.77038     23.3508     1993.79     3671.92     2545.14     500.701     394.758     17.9089      44.866     11.4001     10.5827     36.8875     58.6695     183.793     146.651     2113.65     3515.96     1790.86     155.123     12.5893     219.395     21.9382     7.58396     58.8299     32.8042     93.7366     603.277     2710.44     1853.03
    258.358     393.819     354.868     100.445     174.818     14.1468     12.3928     12.2529     128.101     99.1791     952.927     53.4098     272.263     47.9536     552.307      317.35     146.851     34.6354    0.154543     3.58825     90.6511     167.462     141.376     703.245     4.13959     336.106     23.3582     809.738     91.5085     54.0973     12.5326      3.6242     23.0463     142.198      117.96      340.34     196.118     245.501     762.927     213.788     143.012     2.54802     16.3046     27.4701     4.27092     24.1549     40.6767     80.7515     416.752     444.135     444.144     416.725     80.7457     40.6718     24.1568      4.2705     27.4769     16.3118     2.54834     143.045     213.799     763.003     245.462     196.074     340.283      117.96     142.208     23.0482      3.6193     12.5343     54.0814     91.5395     809.666     23.3617     336.105     4.14368     703.388     141.384     167.464     90.6386     3.58454    0.154152     34.6301     146.828     317.456      552.25     47.9796      272.34     53.3948     952.792     99.1597      128.08     12.2339     12.3806     14.1481     174.837     100.459     354.863     393.769     258.365
    53.4044     222.352     82.5945     185.972     7.14891     98.3897     42.0585     31.0013     72.3569     30.7534     121.712   0.0574353     47.5398     27.1782     129.858    0.330327     149.706     53.9017     59.0713     56.9227     75.9093     98.4517     17.0247      103.53      107.71     90.5918     4.77312     91.5088    0.523949     24.5203     24.0773     20.7226     59.4296     5.76315     284.723     83.1814     337.915     35.0575     3.05736     192.761     155.046     36.6237   0.0473357     36.4628     1.07293    0.559419     76.5623      96.263     257.044     13.8698      13.869     257.045     96.2581     76.5703    0.559401     1.07203     36.4633   0.0466106     36.6292     155.047     192.761     3.05864     35.0331     337.925     83.1679     284.699     5.76448     59.4224     20.7237     24.0771     24.5226       0.526     91.5234     4.77046     90.6093     107.691     103.497     17.0301     98.3932     75.9144     56.9407     59.0827     53.8898     149.645    0.333902     129.873     27.1772     47.5702   0.0575302     121.713     30.7334     72.3738     30.9878      42.062     98.4072     7.15545     185.942     82.5553     222.325     53.4233
    21.6034     76.3799     19.1766     19.5077     13.2848     77.9696     152.071     15.9233      41.678     53.4432     71.6397     147.261     7.81074     65.9469     116.801     57.0587     5.43708   0.0136452   0.0109217     2.18294     1.80538     20.2646      53.828     136.211     87.5641     2.73661     142.098     54.0971     24.5201      78.808     4.21503     111.032     140.175   0.0154784      4.5709     20.0064     75.6822      3.3289    0.815788     204.254       79.14     1.71486     46.2479     55.2555      44.494     30.8232     70.2805     17.7089     232.245     1.51941     1.51932     232.241     17.7083     70.2926     30.8263     44.4728     55.2567     46.2465     1.71627     79.1632     204.262    0.817831     3.32654     75.6937     20.0128     4.56998   0.0155396     140.128     111.039      4.2128     78.8333     24.5187     54.0811     142.121     2.73805     87.5695     136.219     53.8255     20.2814     1.80528     2.19265   0.0109469   0.0135349     5.43392     57.0561     116.763     65.9381     7.80273     147.261     71.6701     53.4405     41.6479     15.9601     152.048     77.9492     13.2828     19.5107     19.1613     76.4156     21.5917
    67.8215     2.65232     131.176     50.2446     13.6096     549.101     2.36543     224.913     3.90985     32.6173     8.75364     7.58668     1.34059     2.83833     58.8927     156.837     12.0847     12.5436     21.3879     27.4286      24.932     9.98301     139.948     70.2837      2.4631     9.97464     23.6138     12.5327     24.0775     4.21502     222.767    0.126234     419.083     6.35262     88.3096      147.06     12.1127     40.9724     35.9435     10.5239     1.86805     8.29774     107.074     23.8515     24.8847      14.006     6.52017     149.863     99.7254     30.3342     30.3352     99.7135     149.858     6.52237     14.0066      24.895     23.8435     107.092     8.30604     1.86589     10.5171     35.9654     40.9675      12.109     147.073     88.3305     6.35907      419.09    0.125144     222.692     4.21708     24.0772     12.5366     23.6155     9.98291     2.46297      70.303      139.91     9.98807     24.9329     27.4397     21.3867     12.5529     12.0732     156.812     58.9115     2.83733     1.34346     7.59451     8.75018     32.6217      3.9123     224.874     2.37214     549.149     13.6084     50.2453     131.196     2.65522     67.8327
    89.8642      0.1431     44.5578     21.1617     140.075     32.8355     269.253     6.89793     120.172     4.75586     4.58867     10.8724     36.9301     21.7792     40.3834     6.97154     23.7824     58.0849     80.2417     21.8504     51.3188      35.179     35.1816     42.1751      30.328     28.0825     6.33778     3.62421     20.7227     111.032    0.126234      243.13     61.0154     164.371     32.6724     47.2687     1.98584     66.6303     41.5948   0.0024595     9.89861     32.1437     7.46828     164.389     13.8907     95.4548     72.3837    0.609615     2.92089     3.73686     3.73724     2.92086    0.609775     72.3745     95.4557     13.8809     164.393     7.46542     32.1414     9.90814  0.00253575     41.5917     66.6429     1.98668     47.2659      32.675     164.348     61.0124     243.097    0.125892     111.043     20.7281     3.62512     6.33967     28.0851     30.3246     42.1608     35.1926     35.1629     51.3063     21.8375     80.2534     58.0835     23.7742     6.96298     40.4055     21.7743     36.9279     10.8796     4.58358     4.76283     120.148     6.90934     269.224      32.826      140.05     21.1648     44.5581    0.143929     89.8534
    128.915     168.662     90.5942     12.7729     7.30568     22.7342     89.1458     311.795     121.237     56.6871     8.65439      36.794     42.6568    0.277332     106.831     5.74791     2.15868     7.37015    0.428532     4.52032     15.6268     22.4671     8.22885     79.4873     9.88791     63.8043     51.5257     23.0463     59.4298     140.175     419.083     61.0155    0.591743     10.8496     6.21782     79.3144     208.393     158.317     3.15574     92.2047    0.400881     17.1082     19.2043    0.396718     314.394     136.682     40.5975     28.2022     227.583     64.2205     64.2185     227.586     28.2051     40.6041     136.686     314.429    0.396941     19.1962     17.1117    0.403208     92.2078     3.15753     158.337     208.391     79.2879     6.21003     10.8377    0.590985     61.0397     419.092     140.166     59.4224     23.0294     51.5379     63.8223     9.88658     79.4815     8.23465      22.491     15.6287     4.51895    0.427463     7.36965     2.17189     5.75241     106.814    0.276412     42.6584      36.811     8.65771     56.6669     121.267     311.677     89.1431     22.7297     7.31396     12.8046     90.5993      168.68     128.889
     71.449     150.668      19.776  0.00122237     122.118     1.19513     222.411 7.29417e-05     2.17825     14.9042     52.8575     1.80957     551.321     4.42547     11.2853     50.2642     387.826     85.9002     115.393     111.078     18.9154     437.605     35.4734     26.3126     2.56518     525.518     8.05647     142.198     5.76314   0.0154761     6.35262     164.371     10.8496     69.9451     18.7122     13.5635     203.502     98.7779     14.5857     70.6218     59.3079     39.1318     104.768     4.81761     81.7735      46.323      136.68     39.7729     116.843     80.1466     80.1491     116.846     39.7723      136.68     46.3297      81.785     4.81948     104.762     39.1203     59.3119     70.6193     14.5984     98.7738     203.544     13.5625     18.7162     69.9629     10.8531     164.355     6.35243    0.015475     5.76478     142.202     8.05546      525.63     2.56543     26.3316     35.4782     437.554     18.8961     111.119     115.402      85.894     387.788      50.248     11.2818     4.42849      551.25     1.81193     52.8309     14.8971     2.17713 6.90916e-05     222.445     1.19834     122.093  0.00121299     19.7638     150.689     71.4085
    574.163     21.2838     123.892     97.9223     7.65557      34.882     3.21612     72.6403     4.77653     370.692     55.8193     193.151     264.232     17.5544     9.58212     167.055     147.506     1.38877     70.2849     70.2605    0.747471     49.8136     198.731    0.924488     7.90892     233.193     198.938      117.96     284.722      4.5709       88.31     32.6724     6.21784     18.7122      94.796     77.2823     7.01847     579.991     478.055     51.6002     3.65413      89.036     3.84134     36.9788    0.407055     7.56836     17.7282     320.275     80.6266     344.872      344.87     80.6247     320.285     17.7376     7.56651    0.407699     36.9776     3.84475     89.0291     3.65566     51.6058     478.012     579.996     7.02534     77.2958     94.7961     18.7175     6.21005       32.67     88.3304     4.56713     284.699     117.949     198.934     233.169     7.90835    0.927118      198.72     49.7866    0.746932     70.2336     70.2802     1.39202     147.469     167.063     9.58255     17.5564     264.206     193.221     55.7816     370.692     4.77856     72.6634     3.21612     34.8841     7.65529     97.8803     123.915     21.2944     574.099
    1415.95     385.458     561.883     17.5239     13.9523      29.346     148.909     51.2724     66.0242     11.1961     325.559     489.831      1321.7     735.359     380.827    0.970181     12.8898     45.5034     119.112     51.3932     115.888    0.706618     43.4619     164.067     563.127     1235.68     525.282      340.34     83.1812     20.0065     147.059     47.2684     79.3139     13.5635     77.2818     456.111     481.078     1355.87      9.4952     604.388     244.403   0.0596228     23.8497     204.778     240.841     21.2207     17.8951     338.265     213.118     7.80431     7.80436     213.115     338.259     17.8954     21.2178     240.877     204.784     23.8521   0.0594784     244.446      604.41     9.50984     1355.85     481.116     456.122     77.2822     13.5716     79.3028     47.2543     147.027      20.009     83.1809     340.325     525.247     1235.68     563.141     164.025      43.462    0.708828     115.898     51.3557     119.114     45.5097     12.8749    0.969219     380.845     735.357     1321.73     489.829     325.618     11.1989     66.0162     51.2564     148.985     29.3402     13.9577     17.5496     561.963     385.495     1415.92
    8014.37     1418.18     288.338     91.2622      140.21     158.356     20.8587     86.4451     10.4404     390.676     24.2402     1281.66     2788.59     770.738     11.4429     20.6213     111.239     179.221     21.5163     0.65161      107.05      195.25     20.8198     249.574     152.534     1790.22     2155.68     196.116     337.913     75.6824     12.1127     1.98585     208.393     203.502     7.01849     481.076     392.011     8055.91      30.323     445.471     262.806     70.2594     21.1881     65.6853     64.7001     59.0181   0.0665128     661.545     1362.03     3322.34     3322.34     1362.06     661.541   0.0651746     59.0195     64.7022     65.6834     21.1869     70.2613     262.776     445.513     30.3714     8056.04     391.872     481.097     7.02267     203.501     208.398     1.98396     12.1186     75.7056      337.91     196.128     2155.68     1790.21     152.509     249.628     20.8319     195.229     107.017    0.658042       21.53     179.228      111.28     20.6324      11.431     770.651     2788.49     1281.46     24.2134     390.634     10.4435     86.4809     20.8691     158.346     140.227     91.1948     288.247     1418.17     8014.12
    8328.54     5557.31     1189.96      692.08     187.507      241.56      191.47     194.764     45.9036     44.3846     1.47177     48.1183      104389     25205.5     2428.68     780.194     273.179     160.795     14.7982     19.3036     40.3985     49.0527     297.368      1375.4     19344.4      225150     1656.69       245.5     35.0574     3.32901     40.9728     66.6322      158.32     98.7783     579.992     1355.87     8055.95      681365     18.2708     148.947     52.7516     167.254     232.965      244.31     319.354     189.375      339.19     597.006     2224.39     21171.5     21171.4      2224.4     596.997     339.192     189.375      319.31     244.313     232.951     167.241      52.703     148.835     18.1477      681511     8055.94     1355.79     580.003     98.7841     158.315     66.5647     40.9796     3.32273     35.0464     245.491     1656.68      225158     19344.6     1375.01     297.515     49.0404     40.3693     19.2495     14.8716       160.8     273.058     780.078     2428.18     25205.1      104402     48.0618     1.47888     44.3858     45.8956     194.789     191.568     241.536     187.509     692.425     1189.73      5557.5     8328.36
     9.9219     720.884     339.644     263.138     12.0979    0.329034     97.6749      13.577     32.5967      41.897     784.886     1290.18     7189.61     790.905     586.702     339.709     129.584     23.7505     66.2219     27.5476      5.0025     45.9128      431.13      47.448     2898.67     7782.16     2189.14      762.92     3.05734    0.815793     35.9436     41.5944     3.15578     14.5855     478.055      9.4952     30.3232     18.2696     180.901     1123.11     1.93452      230.42     29.5406     9.47276     8.14643     31.6838     190.653      4.1091     1671.06     8.54311     8.54293     1671.04     4.11033     190.667     31.6839     8.14967     9.47148     29.5358     230.419     1.94001     1123.12     180.764      18.279     30.2603     9.48111     478.049     14.5913     3.15463     41.5865     35.9514    0.813734     3.05496      762.87     2189.15      7782.2     2898.58     47.4067     431.113     45.8987     5.00265     27.5361     66.2136     23.7485     129.575     339.683     586.806     790.812     7189.78     1290.02     784.829     41.8807     32.5955     13.5591     97.6872    0.330024     12.1038     263.144     339.697     720.882     9.92234
    143.771     666.634     796.166     3.42015     6.73773     111.385    0.798333     25.3359     112.551     36.1668     269.949      14.311     104.973     39.7295     35.5913     3.48224     28.3877     88.3426      11.902     47.2432     55.5968     7.77543     61.2813     15.7329    0.703186     134.062     88.7952     213.786     192.761     204.255     10.5238  0.00245967     92.2048     70.6217        51.6     604.386     445.469     148.945     1123.12     321.726     103.032     218.508     4.95449     14.1062     19.6812     93.1184     175.959     136.288     3.19727     776.068     776.065     3.19716     136.293     175.963     93.1195     19.6799     14.1034     4.95015      218.52     103.021     321.787     1123.09     148.947     445.388     604.335     51.6007     70.6164     92.2179  0.00256896     10.5193     204.265     192.741     213.777     88.7982     134.087    0.702807     15.7605     61.3087     7.78549     55.5787     47.2518     11.8918       88.34     28.3826     3.47271     35.6186     39.7321     105.002     14.3114     269.923     36.1624     112.548      25.351    0.796267     111.397     6.73724      3.4201      796.21     666.639     143.788
    18.9577     165.736     367.991     7.97158      11.047    0.232667     5.58014     4.09673     80.4309     187.103     48.1609     8.81315     115.449     118.131     12.7909     245.297     32.8593     16.4286     14.3605     28.5265     5.39474  0.00439161      178.05     26.9862     205.932     60.2549      1.1003     143.012     155.046     79.1401     1.86804     9.89869    0.400875      59.308     3.65409     244.402     262.805     52.7511     1.93456     103.032     17.8596     198.989     11.6869     7.05692     3.66232     63.4577     173.654     135.933     155.108     13.6318     13.6316     155.111     135.929     173.699      63.459     3.66174     7.05901     11.6869     198.985     17.8661     103.032      1.9371      52.755     262.817     244.391     3.65405     59.3165    0.401452       9.899     1.86801     79.1507      155.08     143.029     1.09852     60.2397     205.979      26.988     178.022  0.00418766     5.39508     28.5334     14.3642     16.4252     32.8478     245.278     12.7956     118.124     115.436     8.81251     48.1413     187.084     80.4177     4.09578     5.57602    0.232533     11.0424     7.96261     368.045     165.771     18.9538
    170.591     31.3244     13.5722     117.053      8.2198     9.88476      28.749    0.351009     23.1749     16.1589     7.72177     227.455     19.8389     3.24469     168.694     47.8274     104.326     47.4927     70.4851     129.417     18.2902     123.696     54.7168     231.618     19.5711     4.55574     234.343     2.54802     36.6238     1.71486     8.29778     32.1435     17.1081     39.1316     89.0365   0.0596208     70.2589     167.254      230.42     218.508     198.988     75.8932     44.1505     3.87815     92.2962     2.18574     62.6715     3.18851     89.7722     79.6502     79.6498     89.7719     3.18947     62.6668     2.18664     92.3001     3.87942     44.1477       75.89     198.986     218.512     230.413     167.246     70.2631   0.0592569     89.0294     39.1419     17.1116     32.1397     8.30603     1.71563     36.6295     2.54531     234.343      4.5465     19.5566     231.642     54.7214     123.699     18.2837      129.41     70.4819     47.4855     104.328     47.8103     168.704     3.24011     19.8697     227.447     7.73051     16.1573     23.1704    0.349866     28.7334     9.88582     8.22053     117.046     13.5861     31.3323     170.582
    359.968     22.5555     25.7748  0.00807117     84.6888    0.098459     9.79609     62.2416     46.7621     1.45656     1.25534    0.046029     54.9103     17.2838      20.558      144.67     7.14836     122.883     25.8523     57.4884     151.953     14.2354     106.477     8.37597     29.3752     63.8914  0.00761186     16.3046   0.0473357     46.2477     107.073     7.46832     19.2044     104.767     3.84135     23.8498     21.1882     232.962     29.5404     4.95453     11.6869     44.1504     150.064    0.172126     215.927      36.198     3.42937     53.2408     78.0978     1.10856     1.10859      78.095     53.2422      3.4307     36.1985     215.938    0.172139     150.071     44.1514     11.6915     4.95374     29.5365     232.955     21.1806     23.8458     3.84302     104.774     19.1981     7.46518     107.068     46.2485   0.0471806     16.3133  0.00751331     63.8978     29.3799     8.37543     106.452     14.2382     151.951     57.4952      25.852     122.893     7.15022      144.68     20.5704     17.2839     54.9082   0.0450831     1.25225     1.45557     46.7621     62.2291     9.81012   0.0982912     84.6882  0.00807836     25.7727       22.55     359.962
    234.469     42.3047     109.296     29.6259      27.038     2.71473     185.831     61.9685     62.6967     37.9311     19.7871     6.76418     112.315     1.20106     65.9533     1.29477     33.9644     29.9376     85.1613     29.6578     18.5589     20.3106     5.48207     117.894     12.1715      131.42     1.07252     27.4701     36.4627     55.2558     23.8515     164.388    0.396717     4.81758      36.979     204.778      65.686     244.308     9.47266     14.1062     7.05693     3.87814    0.172127     113.145     2.78461     3.30329     2.13621     151.761      3.4273     25.6042     25.6036     3.42722     151.761      2.1344     3.30293     2.78688     113.151     0.17221     3.87944     7.05631     14.1086     9.47536     244.309      65.687     204.788     36.9776     4.81437    0.396944     164.385     23.8435     55.2594     36.4634     27.4604     1.07383     131.411     12.1678      117.92      5.4966      20.298     18.5634     29.6489     85.1725     29.9368     33.9498     1.29015     65.9439     1.20088     112.334     6.77088     19.8007     37.9265     62.6925     61.9697     185.841     2.71506     27.0338      29.654     109.365     42.3074     234.456
    294.817     43.2787     216.503    0.283303     51.1674     351.619     25.1062      27.954     83.4576    0.249462     6.70001        49.8     74.8191     2.28883     268.699     24.7324     8.82172     3.32859     40.3261     58.6156     9.41679     21.0472     21.9556     323.361    0.169307     93.8264      17.856     4.27093     1.07293     44.4942     24.8847     13.8908     314.395      81.774    0.407055     240.841        64.7     319.355     8.14647     19.6812     3.66232     92.2954     215.927      2.7846     8.55579    0.436851      9.8419     91.9803      14.476     133.267     133.267     14.4769     91.9814      9.8397    0.437083     8.55363     2.78402     215.961     92.3004     3.66325     19.6796     8.15063     319.365     64.7134     240.859    0.407288     81.7906     314.396     13.8881     24.8853     44.4879     1.07368      4.2693     17.8577     93.8271    0.169574     323.365     21.9577     21.0427     9.41998     58.6339     40.3328     3.32442     8.82346     24.7237     268.704     2.28845     74.8061     49.8038     6.69992    0.249904     83.4507     27.9649     25.1095       351.6       51.19    0.284211     216.487     43.2866      294.81
    197.845     34.9157     14.1135    0.994132     15.7771      71.758     133.176     91.5434      7.1707    0.284139      1.8901     4.28969     464.938     3.42354     13.9716     134.717     80.7055     20.4193     3.01292     15.5113     31.3623     33.4212     113.984     19.3352     1.42034     420.683     1.02229     24.1548    0.559417     30.8231     14.0059     95.4552     136.682     46.3232     7.56836     21.2207     59.0189     189.373     31.6839     93.1185     63.4578     2.18573     36.1981      3.3033    0.436864     141.298     1.47431     12.2864     115.053     48.2836     48.2831     115.054     12.2859     1.47174     141.303    0.436193     3.30294     36.2015     2.18664     63.4631     93.1058     31.6898     189.369     59.0279     21.2209     7.56653      46.333     136.686      95.451     14.0066     30.8218    0.559394     24.1699     1.02231     420.686     1.42087     19.3321      113.97      33.418     31.3579      15.516     3.01301     20.4205     80.7082     134.717     13.9794     3.42276      464.94     4.29513     1.88998    0.283859     7.17318     91.5445     133.187     71.7622      15.781     0.99622     14.1115     34.9095     197.839
    255.589    0.983426     61.3575    0.949653     142.327     57.7815     46.2603     28.2274     141.038     27.6618     2.07434     226.358     409.208     39.8979     166.641     16.8864     11.5529      90.148     12.2465     14.8764     96.1191     1.12777     39.6651     324.295     17.4737     325.738     149.502     40.6768     76.5622     70.2805     6.52022      72.384     40.5975     136.679     17.7282     17.8951   0.0665092     339.189     190.652      175.96     173.654     62.6716     3.42937      2.1362      9.8419     1.47429     15.4224     34.4014    0.321005     100.421      100.42    0.321044     34.4002     15.4219     1.47397     9.84021     2.13612     3.42346     62.6695     173.622      175.96     190.631     339.201   0.0660548     17.8929     17.7272     136.685     40.5983     72.3875     6.51999     70.2637     76.5646     40.6804     149.499     325.721     17.4758     324.317     39.6598     1.12731     96.1168     14.8729     12.2364     90.1427     11.5526     16.8763     166.616     39.9079     409.174     226.374     2.07347     27.6572     141.021     28.2238      46.257     57.7777     142.342    0.948174      61.396    0.984276     255.594
    555.013     543.401     183.316      350.69     67.2343   0.0320881     7.65573     70.0482     2.92978     127.699     201.243     176.186     603.863     352.561     31.9937     30.4943      84.382    0.315781     102.023     68.0707     9.73877      81.281     0.17305     77.5539     412.346     449.627      212.13     80.7518     96.2634     17.7089     149.863    0.609614     28.2023     39.7729     320.278     338.264     661.547     597.006     4.10906     136.287     135.932     3.18851     53.2406     151.761     91.9807     12.2864     34.4014     4.79621     15.2737    0.597027    0.597052      15.273     4.79518      34.394     12.2858     91.9888      151.76     53.2432     3.18948     135.955     136.272     4.10895     597.019     661.532      338.27     320.286     39.7738     28.2053     0.61044     149.858     17.7085     96.2579      80.766      212.13     449.616     412.365     77.5459    0.173073     81.2823     9.74694     68.0804     102.016    0.315603     84.3743     30.5032     31.9934     352.554     603.816     176.138     201.255     127.698     2.92973     70.0335     7.66084   0.0320506     67.2359     350.684     183.247     543.406     555.013
    2101.39     1119.07     317.469     238.315      45.455     301.698     16.3621     194.972     121.672     387.214     541.729     1100.21     249.685     11.5178     205.192     435.954     34.5975     365.571   0.0530763     14.7193     200.243     92.5982     305.289     662.814     15.4785     152.925     1037.45     416.753     257.044     232.245     99.7258     2.92088     227.582     116.844     80.6267     213.117     1362.03      2224.4     1671.06      3.1972     155.108     89.7726     78.0976      3.4273      14.476     115.053    0.320999     15.2736     1373.35     1666.62     1666.62     1373.36      15.273    0.323006     115.054     14.4731     3.42719     78.0814      89.772     155.079     3.20012      1670.9      2224.4     1362.07     213.103      80.625     116.844     227.586     2.91888     99.7139     232.254     257.046     416.701     1037.46     152.914     15.4778     662.946     305.317     92.6077     200.221      14.744   0.0533566     365.576     34.6028     435.998     205.188     11.5149     249.679     1100.18     541.668     387.202     121.684     194.976     16.3817     301.708     45.4521      238.32     317.506     1119.08     2101.42
    14317.8     3696.67     79.9478      157.58     58.7442     100.263       22.89    0.259276      12.579     6.01268      459.08     772.692     36762.1     8557.75     2.74144     205.864     154.003     47.7786     10.0334     5.46205     21.8571     94.4749     306.525      213.36     14160.1     43912.7      48.769     444.134     13.8699      1.5194     30.3343     3.73687     64.2206     80.1466     344.872     7.80441     3322.34     21171.5     8.54309     776.067     13.6318     79.6505     1.10854     25.6042     133.267     48.2836     100.421    0.597053     1666.62     30864.8     30864.8     1666.61    0.597058     100.445     48.2835     133.249     25.6038     1.10607     79.6499     13.6476     776.063     8.49062     21172.2     3322.08     7.81423     344.871     80.1442     64.2187     3.73636     30.3351     1.52201     13.8689     444.168     48.7681     43913.4     14160.1     213.437     306.491     94.4542     21.8701     5.47857     10.0306     47.7774      154.01     205.824     2.74242     8557.81     36763.3     773.004     459.061      6.0127     12.5782    0.260057     22.8992     100.264     58.7446     157.587     79.9715     3696.66     14317.8
    14317.8     3696.66      79.948     157.584     58.7446     100.264     22.8903    0.259285     12.5782      6.0127     459.081     772.696     36762.2     8557.81     2.74169     205.868     154.004     47.7774     10.0331     5.46235     21.8568     94.4759     306.528      213.36     14160.1     43912.7     48.7681     444.143     13.8689      1.5193     30.3351     3.73727     64.2187     80.1494     344.871     7.80431     3322.33     21171.4     8.54311     776.066     13.6315     79.6499     1.10859     25.6038     133.267     48.2835      100.42    0.597058     1666.61     30864.8     30864.8     1666.62    0.597053     100.444     48.2836      133.25     25.6042     1.10594     79.6505     13.6471      776.07     8.49065     21172.2     3322.09     7.81425     344.872      80.143     64.2206      3.7364     30.3343     1.52207     13.8699     444.176      48.769     43913.3     14160.1     213.437     306.487     94.4551     21.8705     5.47907      10.031     47.7786     154.008     205.825     2.74245     8557.75     36763.1     773.004      459.06     6.01268      12.579    0.260082      22.899     100.263     58.7442     157.591     79.9744     3696.67     14317.8
    2101.42     1119.08     317.476     238.317     45.4521     301.708     16.3636     194.964     121.684     387.202     541.732     1100.21     249.693     11.5149     205.208     435.952     34.5969     365.576   0.0529442     14.7232     200.243     92.6046     305.291     662.837     15.4778     152.926     1037.46     416.724     257.046     232.242     99.7139     2.92086     227.586     116.845      80.625     213.115     1362.07      2224.4     1671.04     3.19717     155.111      89.772     78.0945     3.42719     14.4768     115.054    0.321049      15.273     1373.36     1666.62     1666.62     1373.35     15.2736    0.323124     115.053     14.4735      3.4273     78.0791     89.7726     155.075     3.20122     1670.91     2224.39     1362.09     213.098     80.6267     116.844     227.582     2.91904     99.7258     232.251     257.044     416.683     1037.45     152.911     15.4785     662.939     305.324     92.6122      200.23     14.7401   0.0532793     365.571     34.6019         436     205.189     11.5178     249.681     1100.17     541.662     387.214     121.672     194.981     16.3817     301.698      45.455     238.323     317.517     1119.07     2101.39
    555.013     543.406     183.319     350.684     67.2359   0.0320506     7.65475     70.0494     2.92973     127.698     201.246     176.186     603.854     352.554     31.9896     30.4946     84.3836    0.315603     102.026     68.0669     9.73771      81.278    0.173556     77.5553     412.365     449.639      212.13     80.7457     96.2579     17.7084     149.858    0.609786     28.2053     39.7724     320.286      338.26     661.545     596.998     4.11032     136.293     135.928     3.18948     53.2414      151.76     91.9815     12.2858     34.4003     4.79518      15.273    0.597052    0.597027     15.2737     4.79621     34.3951     12.2864     91.9912     151.761     53.2449     3.18851     135.955     136.275     4.10906      597.01     661.553     338.254     320.278     39.7779     28.2023    0.610305     149.863     17.7093     96.2634      80.765      212.13     449.627     412.346     77.5472    0.173306     81.2777     9.74752     68.0766     102.016    0.315781     84.3787     30.5034     31.9941     352.561     603.813     176.143      201.26     127.699     2.92978     70.0318     7.66089   0.0320881     67.2343     350.691     183.251     543.401     555.013
    255.682    0.977956      61.397    0.947393     142.321     57.7507     46.2366     28.2049     141.064     27.6461     2.07547     226.376     409.163     39.8886     166.582     16.8829      11.555     90.1429      12.235     14.8764      96.107     1.12849     39.6661     324.282     17.4755     325.726     149.522     40.6718       76.57      70.292     6.52238     72.3747     40.6041      136.68     17.7376     17.8954   0.0651661     339.194     190.667     175.963       173.7     62.6667     3.43069     2.13438     9.83972     1.47175     15.4219     34.3941     0.32301     100.445     100.444     0.32312      34.395     15.4195     1.47152     9.83926     2.13442     3.42723      62.669     173.673     175.957     190.652     339.226   0.0652763     17.8869     17.7384     136.647     40.5979     72.3728     6.52226     70.2889     76.5709     40.6588     149.512     325.715     17.4797     324.335     39.6713     1.12704     96.1348     14.8735     12.2378     90.1441     11.5591     16.8907     166.573      39.888     409.234     226.357     2.07387      27.652     141.075     28.2099     46.2272     57.7443     142.335    0.945877      61.408    0.977778      255.61
    197.839     34.9095     14.1164    0.994537      15.781     71.7622     133.174     91.5328     7.17318    0.283859     1.89001     4.29105      464.92     3.42276     13.9704     134.725      80.707     20.4205     3.01141     15.5095     31.3613     33.4209     113.986     19.3352     1.42087      420.69     1.02231     24.1567    0.559394     30.8262     14.0066     95.4558     136.686     46.3299     7.56653      21.218     59.0197     189.372     31.6839     93.1187     63.4587     2.18664     36.1985     3.30294    0.437089     141.303     1.47397     12.2859     115.054     48.2831     48.2836     115.053     12.2864     1.47153     141.298    0.435994      3.3033      36.203     2.18573     63.4634     93.1078     31.6889     189.368     59.0283     21.2183     7.56836     46.3385     136.682     95.4483     14.0059     30.8226    0.559417     24.1708     1.02229     420.701     1.42034     19.3284     113.962      33.416     31.3556     15.5117     3.01336     20.4193     80.7052     134.733     13.9793     3.42354     464.933     4.29716     1.88875    0.284139      7.1707     91.5413     133.184      71.758     15.7771     0.99574     14.1134     34.9157     197.845
     294.88     43.2837     216.536    0.284589     51.1797      351.63     25.0917     27.9546     83.3924    0.248158     6.70301     49.7932     74.7918      2.2919     268.745     24.7354     8.82193     3.32867      40.342     58.6425     9.41903     21.0431     21.9655       323.4    0.169165     93.8044     17.8598      4.2705     1.07204     44.4728      24.895     13.8809     314.429     81.7853    0.407697     240.878     64.7021     319.312     8.14968     19.6798     3.66171     92.2998     215.938     2.78688     8.55363    0.436206     9.84023     91.9884      14.473      133.25     133.249     14.4734     91.9912     9.83922    0.436005     8.54814     2.78708     215.973     92.3033     3.66331     19.6859     8.15184     319.317     64.7172     240.872    0.408163     81.7791     314.433     13.8832     24.8955     44.4836     1.07246     4.27502      17.856     93.8162    0.169082     323.362     21.9666     21.0463     9.42152     58.6371     40.3425     3.32754     8.82062     24.7388     268.808     2.29009      74.785     49.8168     6.70783    0.248121     83.4085     27.9619     25.0998     351.642     51.1691     0.28285     216.525     43.2811     294.891
    234.456     42.3074     109.316      29.624     27.0338     2.71506     185.827     61.9737     62.6925     37.9265     19.7946     6.75856     112.324     1.20088     65.9546     1.29428     33.9672     29.9368     85.1638     29.6519     18.5606     20.3064     5.47846     117.899     12.1678     131.411     1.07383     27.4771     36.4634     55.2567     23.8435     164.393    0.396944     4.81943     36.9776     204.784     65.6838     244.311     9.47153     14.1034     7.05901     3.87944    0.172136     113.151     2.78401     3.30293     2.13612     151.761     3.42722     25.6036     25.6042      3.4273     151.761     2.13441     3.30329     2.78707     113.145    0.172234     3.87814     7.05506      14.107     9.47547     244.316     65.6951       204.8      36.979     4.81666    0.396717     164.396     23.8515     55.2604     36.4627     27.4719     1.07252     131.411     12.1715     117.936      5.4916     20.2941     18.5619     29.6481     85.1731     29.9376      33.946     1.28942     65.9477     1.20106     112.344     6.77146     19.8028     37.9311     62.6967     61.9732     185.846     2.71473      27.038     29.6522     109.369     42.3047     234.469
    359.965     22.5553     25.8015  0.00818486     84.6888    0.098453     9.79261     62.2315     46.7501     1.45444     1.25354   0.0453746      54.896     17.2801     20.5814     144.659     7.14598      122.85     25.8598     57.4841     151.928     14.2384     106.467     8.37872     29.3689     63.8964  0.00745382     16.3118   0.0466102     46.2464     107.092     7.46546     19.1961     104.762     3.84473     23.8522      21.187     232.948     29.5357     4.95012     11.6869     44.1479     150.073    0.172207     215.961     36.2015     3.42346     53.2433     78.0818     1.10603     1.10593     78.0791     53.2446     3.42721     36.2029     215.974    0.172237      150.09     44.1483     11.6964     4.95342     29.5293     232.941     21.1861     23.8556       3.843     104.778     19.1985     7.46655     107.103     46.2435   0.0469282     16.3288  0.00748685     63.8908     29.3656     8.38587     106.445     14.2378     151.943     57.5131     25.8543     122.859     7.14853     144.685     20.5713     17.2825     54.8894   0.0451095     1.25343     1.45543     46.7542     62.2305     9.80629   0.0985025     84.6902   0.0079774     25.7926     22.5558     359.927
    170.582     31.3323     13.5667     117.044     8.22053     9.88582     28.7596    0.350999     23.1704     16.1573     7.71868     227.409     19.8365     3.24011     168.683     47.8353     104.321     47.4855      70.498     129.434     18.2883     123.703     54.7326     231.614     19.5566     4.55544     234.343     2.54836     36.6295     1.71625     8.30603     32.1412     17.1116     39.1203     89.0294   0.0594764     70.2613     167.239     230.419      218.52     198.985       75.89     44.1514     3.87942      92.301     2.18664     62.6692     3.18947     89.7719     79.6498     79.6502     89.7722     3.18851      62.669     2.18574     92.3033     3.87815     44.1483     75.8932     198.988     218.508       230.4     167.248     70.2642   0.0595622     89.0365     39.1337     17.1081     32.1329     8.29778     1.71714     36.6238     2.54841     234.343      4.5456     19.5711     231.644     54.7227     123.707     18.2809     129.408     70.4815     47.4927      104.34     47.8069     168.694     3.24469     19.8717     227.434     7.72669     16.1589     23.1749    0.348021     28.7413     9.88476      8.2198     117.059     13.5689     31.3244     170.591
    18.9306     165.721     368.011     7.96612     11.0483    0.231966     5.58311     4.09285     80.4637      187.09      48.148     8.80228     115.447     118.076     12.7842     245.288     32.8658     16.4377     14.3552     28.5194     5.39901  0.00453132      178.05     26.9745     205.964     60.2157     1.10162     143.045     155.047     79.1635      1.8659     9.90803    0.403205     59.3119     3.65567     244.446     262.775      52.704     1.93998      103.02     17.8661     198.985     11.6915     7.05632     3.66326     63.4629     173.622     135.954     155.078     13.6477      13.647     155.074     135.955     173.673     63.4632     3.66333     7.05502     11.6964     198.989     17.8604     103.052      1.9413      52.708     262.805     244.401     3.65715     59.3128     0.40102     9.90823     1.86761     79.1476     155.058     143.066      1.1024     60.1983     205.941     26.9879     178.049  0.00429174     5.39849      28.535     14.3678     16.4368     32.8477     245.323     12.7861     118.078     115.413     8.80385     48.1357     187.089      80.458     4.09268     5.58245    0.231952     11.0347     7.95998     368.074     165.722     18.9377
    143.646     666.738      796.23     3.41762     6.73673     111.438     0.79814     25.3509     112.546     36.1828     269.969      14.317      105.01     39.7649     35.6019     3.48091     28.3841     88.3493     11.8939     47.2191     55.5907     7.77366     61.2784     15.7219    0.701005     134.182     88.8216     213.799     192.761     204.263     10.5171  0.00253568     92.2078     70.6188     51.6056     604.411     445.512     148.835     1123.12     321.786     103.032     218.513     4.95377     14.1087     19.6797      93.106     175.961     136.271     3.20015     776.068     776.072     3.20124     136.275     175.958     93.1071     19.6858     14.1071     4.95344     218.508     103.051      321.79     1123.12     148.839     445.433     604.365     51.6079     70.6282     92.2056  0.00251405     10.5162     204.255     192.773     213.788     88.8196     134.196    0.700812     15.7443     61.3098     7.78777     55.5763     47.2475     11.8905     88.3592     28.3794     3.47377     35.6322     39.7465     104.998     14.3099     269.946     36.1702     112.559     25.3387    0.799641     111.413     6.73419     3.41921     796.201     666.693     143.659
    9.97817      721.12     339.591     263.072     12.1241     0.32894     97.6888     13.5789     32.6076     41.9271     785.013     1290.51      7190.8     790.574     586.819     339.803      129.66      23.744     66.2067     27.5321     4.99987     45.9202     431.109     47.4251     2897.77     7782.68     2189.26     763.004     3.05865    0.817848     35.9653     41.5919     3.15754     14.5984     478.012     9.50985     30.3714     18.1472     180.763     1123.08     1.93706     230.414     29.5367     9.47537     8.15066     31.6898     190.631     4.10892      1670.9     8.49063     8.49065     1670.91     4.10905     190.653     31.6887     8.15176     9.47551     29.5292     230.401     1.94126     1123.12      180.45     18.1572     30.3109     9.49238     478.049     14.5914     3.15046     41.6008     35.9772    0.814859     3.05805      762.92     2189.19      7782.9     2897.85     47.4359     431.096     45.9181     5.00005      27.548     66.2292      23.746     129.633      339.55     586.805     790.573     7190.95     1289.85     784.898     41.9304     32.6096     13.5935     97.6672    0.329155     12.1196     263.127     339.735     721.074     9.98269
    8339.17     5557.23     1190.02     692.102     187.457     241.549     191.473     194.716     45.9093     44.3792     1.47664     48.1253      104385     25205.9     2428.56     780.225     273.174     160.791     14.8056     19.3079     40.3843     49.0402       297.4     1375.41     19344.3      225150     1656.59     245.455     35.0335     3.32649     40.9678      66.644     158.339     98.7748     579.992     1355.85        8056      681510     18.2802     148.951     52.7557     167.247     232.959      244.31     319.365     189.369     339.201     597.019      2224.4     21172.2     21172.3     2224.38     597.013     339.226      189.37     319.318     244.316     232.943     167.247     52.7085      148.84     18.1563      681643     8055.77     1355.81     579.999     98.7737     158.333     66.5651     40.9594     3.32213      35.038     245.463     1656.56      225158     19344.4     1374.99      297.53     49.0323     40.3629     19.2445     14.8622     160.777      273.08     780.048     2428.22     25205.9      104398      48.033     1.48076     44.3833     45.9153     194.799     191.578     241.538     187.477      692.41     1189.69     5557.19      8339.3
    8014.13     1417.79     288.362     91.2326     140.261     158.374     20.8705     86.4704     10.4344     390.614       24.22     1281.35     2789.12     770.476     11.4638     20.6073     111.253     179.218     21.5237    0.655327     107.043     195.249     20.8424      249.58     152.316     1790.81     2155.52     196.073     337.926     75.6938      12.109     1.98668     208.392     203.544     7.02529     481.118     391.871     8055.88       30.26     445.391     262.816     70.2631     21.1805     65.6867     64.7132     59.0277   0.0660512     661.532     1362.08      3322.1      3322.1     1362.09     661.551   0.0652799     59.0281     64.7173     65.6945     21.1861     70.2641     262.805     445.435     30.3112     8055.76     391.775     481.074     7.01757     203.512     208.358     1.98262     12.1152     75.6953     337.993     196.088     2155.46     1790.82     152.308      249.67     20.8449     195.247     107.024    0.655474     21.5332     179.207     111.296     20.6196     11.4548     770.434     2788.85      1281.1      24.197       390.6     10.4324     86.4846     20.8731     158.359     140.237      91.177     288.334     1417.88     8014.31
    1415.63     385.507     561.959     17.5165     13.9627     29.3604     148.911     51.2656      66.017     11.2005     325.564     489.737     1321.89     735.437     380.825    0.967888      12.894     45.4869     119.103     51.3872     115.864    0.708681     43.4619     164.011     563.085     1235.67       525.2     340.283     83.1682     20.0129     147.073     47.2661     79.2876     13.5625     77.2954      456.12     481.097     1355.79      9.4812     604.334      244.39   0.0592565     23.8456     204.789     240.859     21.2207     17.8929      338.27     213.103     7.81423     7.81421     213.096     338.255     17.8869     21.2184     240.871       204.8     23.8554   0.0595637     244.402     604.367     9.49239     1355.81     481.073     456.093     77.2704     13.5686     79.2774     47.2519     147.086     20.0125     83.1694     340.293     525.254     1235.66     563.031     164.009     43.4792    0.707421     115.903      51.357     119.147     45.4792     12.8828    0.968769     380.798     735.446      1321.8      489.76     325.543     11.2026     65.9886     51.2411     148.988     29.3481     13.9508     17.5437     562.034     385.473     1415.58
    574.099     21.2944     123.824     97.9169     7.65529     34.8841     3.21626     72.6633     4.77856     370.692     55.8119     193.136     264.215     17.5564     9.57828     167.071     147.502     1.39202     70.2739     70.2462     0.74641     49.8171     198.725    0.924052     7.90835      233.19     198.934     117.959     284.699     4.56998     88.3304      32.675     6.21005     18.7161     94.7961     77.2826     7.02268     580.005      478.05     51.6011     3.65403     89.0291       3.843     36.9776    0.407292     7.56651     17.7271     320.285     80.6247      344.87     344.872     80.6266     320.275     17.7384     7.56836    0.408161     36.9788     3.84298      89.036     3.65715      51.608     478.048     580.001     7.01765     77.2706      94.796     18.7331     6.21784     32.6737       88.31     4.56679     284.722     117.923     198.938     233.181     7.90892    0.926778     198.691     49.7782     0.74517     70.2631     70.2825     1.38877     147.452      167.08     9.58014     17.5544     264.216     193.177      55.797     370.692     4.77653     72.6713     3.21572      34.882     7.65557     97.8562     123.854     21.2838     574.163
    71.4012     150.704      19.754  0.00134504     122.112     1.19869     222.435 7.92307e-05     2.18392      14.892     52.8628     1.80729      551.47     4.41751     11.2872      50.268     387.717     85.8905     115.432     111.114     18.9106     437.597     35.4794     26.3308     2.56665     525.538     8.04982     142.208     5.76449     0.01554     6.35908     164.349     10.8377     69.9629     18.7176     13.5717     203.501     98.7824     14.5915     70.6163     59.3164     39.1418     104.775     4.81435     81.7899     46.3328     136.685     39.7741     116.846     80.1445     80.1431     116.845     39.7782     136.646     46.3383     81.7794     4.81663     104.779     39.1335      59.313     70.6284     14.5914     98.7727     203.511     13.5685     18.7331      69.931       10.84     164.336     6.34943   0.0155337     5.76243     142.224     8.05108     525.596     2.56562     26.3265     35.4691     437.594     18.8918     111.095     115.428     85.9159     387.715     50.2648      11.268     4.41705     551.301     1.80727     52.8194     14.8973      2.1813 6.85606e-05     222.412     1.19729     122.097  0.00135105     19.7583     150.699     71.4245
    128.889      168.68     90.5874     12.7713     7.31396     22.7297     89.1515      311.77     121.267     56.6669     8.64249     36.8003     42.6568    0.276412     106.818     5.74769     2.15895     7.36965    0.429005     4.52099     15.6313     22.4631     8.22232     79.5028     9.88658     63.7997     51.5379     23.0481     59.4224     140.128     419.092     61.0124    0.590985      10.853     6.21003     79.3033     208.398     158.311     3.15462     92.2179    0.401456     17.1117     19.1982    0.396941     314.396     136.686     40.5981     28.2051     227.586     64.2185     64.2205     227.583     28.2022     40.5978     136.682     314.432    0.396718     19.1986     17.1082    0.401024      92.206     3.15049     158.328     208.357     79.2774     6.21782     10.8399    0.591743     61.0358     419.083     140.167     59.4298      23.039     51.5257     63.8291     9.88791     79.4823     8.23227     22.4828      15.634     4.52645    0.430273     7.37015     2.16848     5.75914     106.789    0.277332     42.6618     36.8395     8.65237     56.6871     121.237     311.661      89.132     22.7342     7.30568     12.7972     90.6235     168.662     128.915
    89.8752    0.143615      44.557     21.1658     140.019     32.8321      269.23     6.90046      120.18     4.76094     4.58217     10.8693     36.8795     21.7855     40.3886     6.97908     23.7667     58.0895     80.2264     21.8263     51.2891      35.177     35.1867     42.1825     30.3289     28.0259     6.34093      3.6193     20.7238      111.04    0.125139     243.098     61.0399     164.356       32.67     47.2542     1.98396     66.5641     41.5867  0.00256883     9.89906     32.1399     7.46518     164.385     13.8881      95.451     72.3872    0.610421     2.91889      3.7364     3.73639     2.91905     0.61032     72.3722     95.4487     13.8832     164.396     7.46654     32.1327      9.9082  0.00251424     41.6009     66.5642     1.98262     47.2519     32.6738     164.336     61.0358     243.101    0.125436     111.024     20.7251     3.62009     6.33778     28.0154     30.3284      42.164     35.2121     35.1697     51.3053     21.8325     80.2598     58.0753     23.7723      6.9744     40.4147     21.7861     36.8747     10.8823     4.58567     4.75931     120.152     6.91059     269.248     32.8414     140.024     21.1708     44.5783    0.142329     89.8653
    67.8327     2.65522     131.192     50.2479     13.6084     549.149     2.36416     224.898      3.9123     32.6217     8.75134     7.58878     1.33871     2.83733      58.918     156.858     12.0864     12.5529     21.3863     27.4215     24.9413     9.98508     139.958     70.3023     2.46297     9.96501     23.6155     12.5344     24.0772     4.21279     222.692    0.125891      419.09     6.35243     88.3305     147.028     12.1186     40.9787     35.9514     10.5192     1.86801     8.30604     107.068     23.8435     24.8854     14.0066     6.51998     149.858     99.7135     30.3352     30.3342     99.7254     149.863      6.5222      14.006     24.8954     23.8515     107.103     8.29774     1.86762     10.5162     35.9773     40.9591     12.1152     147.085     88.3096     6.34945     419.083    0.125437     222.767     4.21639     24.0775      12.534     23.6138     9.97733      2.4631     70.2967     139.941     9.98642     24.9318      27.425     21.3914     12.5436     12.0747     156.829     58.9276     2.83833     1.34419     7.59689     8.74487     32.6173     3.90985     224.917     2.36805     549.101     13.6096     50.2574     131.174     2.65232     67.8215
    21.5772     76.3971     19.1946     19.5276     13.2828      77.969     152.063     15.9391     41.6831     53.4346     71.6656     147.288     7.81073     65.9384     116.784     57.0545     5.43027   0.0135482   0.0110061     2.18514     1.80559     20.2623     53.8455     136.213     87.5487     2.73182     142.095     54.0815     24.5225     78.8331     4.21709     111.043     140.166   0.0154751     4.56711      20.009     75.7057     3.32275    0.813733     204.264     79.1508     1.71564     46.2486     55.2596     44.4881     30.8219     70.2639     17.7083     232.254     1.52201       1.522     232.251     17.7092     70.2888     30.8227     44.4834     55.2605     46.2435     1.71715     79.1478     204.254    0.814854     3.32209     75.6948     20.0124     4.56681   0.0155333     140.167     111.024      4.2164     78.8309     24.5243      54.072     142.077     2.73629     87.5681     136.217     53.8377     20.2765     1.80681     2.19215   0.0111819   0.0134033       5.429     57.0627     116.809     65.9469     7.80294     147.229      71.658     53.4453     41.6716     15.9416     152.078     77.9746     13.2743     19.5021     19.1826     76.3979      21.574
    53.4233     222.325     82.6161     185.947     7.15545     98.4072     42.0667     31.0068     72.3738     30.7334       121.7   0.0566574     47.5543     27.1772     129.903    0.329192     149.635     53.8898     59.0676     56.9379     75.9219     98.4461     17.0378     103.518     107.691     90.5917     4.77046     91.5394       0.526     24.5186     24.0771     20.7281     59.4224     5.76482     284.699     83.1809     337.911     35.0457     3.05496     192.742      155.08     36.6292   0.0471797     36.4633     1.07367    0.559401     76.5648     96.2581     257.045      13.869     13.8698     257.044      96.263     76.5709    0.559419     1.07245     36.4628   0.0469286     36.6237     155.058     192.772     3.05809     35.0377     337.994     83.1693     284.723     5.76245     59.4296      20.725     24.0773     24.5244    0.523949      91.538     4.77312     90.5763      107.71     103.503      17.042      98.393     75.8985     56.9678      59.075     53.9017     149.663    0.331067     129.853     27.1782      47.557   0.0570216     121.704     30.7534     72.3569     30.9894     42.0765     98.3897     7.14891     185.911     82.6076     222.352     53.4044
    258.382     393.797     354.932     100.437     174.824     14.1654     12.3891     12.2438     128.104     99.1575     952.746     53.3831     272.241      47.998     552.249     317.439     146.824     34.6375    0.154314     3.58059     90.6214     167.457     141.438     703.347     4.12958     336.058     23.3508     809.667     91.5234     54.0811     12.5366     3.62514     23.0294     142.203     117.949     340.324     196.128     245.493     762.872     213.778      143.03     2.54529     16.3134     27.4604     4.26928     24.1698     40.6806     80.7657     416.703     444.171     444.176     416.685     80.7649     40.6589     24.1707     4.27501      27.472     16.3287     2.54844     143.066     213.788     762.923     245.465     196.089     340.292     117.923     142.225     23.0391     3.62006      12.534     54.0719     91.5381     809.478     23.3581     336.093     4.13656     703.363     141.433     167.426     90.6371     3.58352    0.153986     34.6608     146.856     317.408     552.175     48.0238     272.278     53.3971     952.879     99.1636     128.107     12.2348     12.3929     14.1567       174.8     100.442     354.785     393.833     258.462
    1853.03     2710.44     603.346     93.7113     32.8042     58.8299     7.58805     21.9469     219.395     12.5893     155.127     1791.03     3516.01     2113.65     146.688     183.818      58.654     36.8875     10.5691     11.3908     44.8807     17.9199     394.696     500.574     2545.14     3671.89     1993.79     23.3618     4.77038      142.12     23.6154     6.33964     51.5381      8.0555     198.934     525.247     2155.67     1656.67     2189.15     88.7981     1.09849     234.343   0.0075131     1.07383     17.8575     1.02231     149.498      212.13     1037.46     48.7681     48.7692     1037.45     212.129      149.51     1.02228     17.8561     1.07251  0.00748851     234.343      1.1024     88.8194     2189.19     1656.56     2155.45     525.253     198.938     8.05107     51.5256     6.33777     23.6138     142.077     4.77307     23.3582      1993.8     3671.87     2545.09     500.655     394.753     17.9063     44.8747      11.402      10.576     36.8786     58.6158     183.809     146.594     2113.72        3516     1790.93     155.124     12.6018       219.4     21.9369     7.58461     58.8621     32.8133     93.7606     603.379     2710.52        1853
     249677     42.2528     744.465     193.916     601.885     177.153     98.6557     65.5199     89.5044     2.90341     24.4524     2522.35     20912.2     1026.67      1640.6     398.272     141.343     15.7735     46.1884     1.37552     32.9758     46.3649     233.186     1550.47      8583.7     57083.4     3671.92     336.106     90.6095     2.73815     9.98289     28.0851     63.8219      525.63     233.169     1235.68     1790.22      225159     7782.21     134.087     60.2401     4.54652     63.8971     131.411     93.8269      420.69     325.721     449.618     152.915     43913.5     43913.5     152.911     449.628     325.716     420.703     93.8159     131.411     63.8909     4.54567     60.1985     134.196     7782.88      225157     1790.83     1235.66     233.181     525.597     63.8291     28.0155     9.97733      2.7363     90.5767     336.091     3671.87       57087     8584.03     1550.17     233.196      46.311     33.0136     1.37125     46.2113     15.7762     141.335     398.291     1640.72     1026.75     20915.6     2522.09      24.404     2.90308     89.4864     65.5638     98.6328     177.174     601.854     194.111     744.421     42.2437      249676
    19645.8     1676.37     638.061     50.7004      17.382    0.617263     59.4948      5.2539     63.3504     134.726     42.5125     2614.32     13907.7        8546     1117.04     13.9467     13.1042     108.233     34.0858     23.6785     117.381     35.1324     6.73696     991.478       10719     8584.51     2545.14     4.14372     107.691     87.5693     2.46301     30.3245      9.8866     2.56542      7.9083     563.138     152.509     19344.5     2898.59    0.702777     205.979     19.5567     29.3798     12.1677    0.169562     1.42084     17.4756     412.364     15.4779     14160.1     14160.1     15.4784     412.344     17.4797     1.42032    0.169085     12.1715     29.3655     19.5712     205.941    0.700842     2897.85     19344.5     152.308     563.031     7.90891      2.5656     9.88793     30.3284      2.4631     87.5687      107.71     4.13657      2545.1     8583.97     10718.2     991.236     6.74996     35.1441     117.395     23.6805     34.0942     108.279     13.1117     13.9618     1117.41     8545.26     13907.7     2614.27     42.5442     134.694     63.3889      5.2472     59.5401    0.620728     17.3658     50.6927     637.863     1676.56     19646.2
    1635.04     85.8366     378.285      24.492   0.0482049     54.7587     102.621     16.7264     111.606     53.7155     753.356     817.568     1399.61     1174.09     112.432     154.644      0.1472     21.0075     14.5252    0.394444     39.2615     17.7237     51.3508     404.463     991.234     1550.22     500.701     703.389     103.497     136.219     70.3027     42.1608     79.4816     26.3317     0.92713     164.024     249.629     1375.02      47.407     15.7605     26.9878     231.642     8.37544     117.919     323.364     19.3321     324.316     77.5459     662.952     213.437     213.437     662.941     77.5473     324.334     19.3285     323.364     117.936     8.38587     231.644     26.9879     15.7443      47.436     1374.99      249.67     164.009    0.926781     26.3267     79.4824     42.1637     70.2968     136.217     103.503     703.361     500.656     1550.17     991.237     404.776     51.3333     17.7284     39.2725    0.398782       14.54      21.022    0.147468     154.687     112.444     1174.21     1399.63      817.61      753.37      53.686     111.565     16.7262      102.61     54.7508      0.0493     24.4745     378.275     85.8854     1634.89
     270.52    0.175535     1.90009     225.128     2.77545     5.93004     11.1125     99.0048     2.92528     38.5349     33.1602     460.148     170.615     3.16001     55.9438     1.40114     1.13339     5.19014     14.9117     10.0723     17.4741     14.8125     46.0675     51.3268      6.7592      233.13     394.759     141.384       17.03     53.8255      139.91     35.1925     8.23466     35.4779      198.72     43.4618      20.832     297.517     431.112     61.3091     178.022     54.7213     106.452     5.49659     21.9577      113.97     39.6598    0.173078     305.317     306.489     306.486     305.326    0.173309     39.6715     113.961     21.9666     5.49162     106.446     54.7228      178.05     61.3102     431.096      297.53      20.845     43.4793      198.69      35.469     8.23223     35.2122     139.942     53.8376      17.042     141.433     394.754     233.195     6.74993     51.3336     46.0907     14.8188     17.4698     10.0748     14.9235     5.19255     1.13229     1.39624     55.9477      3.1643     170.649     460.069     33.1481     38.5386     2.92429     98.9783      11.113     5.93153     2.77685      225.19     1.90383    0.174429     270.448
    87.5395     199.501     1.40579     177.627     346.621     16.5557     26.7957     6.21859     65.5994     38.0011     116.166   0.0349323     34.3119      48.861    0.304016     17.7768     1.94363     7.74041    0.424018      16.266     3.31443     12.2883     14.8166     17.7049     35.1409     46.3018     17.9089     167.464     98.3932     20.2813      9.9881     35.1627     22.4909     437.553     49.7867     0.70884      195.23     49.0403     45.8987     7.78545  0.00418982     123.699     14.2383      20.298     21.0427      33.418     1.12732     81.2822     92.6088     94.4546     94.4554     92.6128     81.2779     1.12703      33.416     21.0463     20.2942     14.2378     123.707  0.00429277     7.78773     45.9181     49.0314     195.247    0.707415     49.7783     437.593     22.4829     35.1698      9.9864     20.2763     98.3928     167.425     17.9064     46.3113     35.1439     17.7284     14.8187     12.2922     3.30826      16.275      0.4233      7.7427     1.94185      17.781    0.305662     48.8441      34.301   0.0340502     116.172     37.9916     65.6038     6.21386     26.7911     16.5587     346.621     177.621     1.41016     199.427     87.5795
    76.7064     149.595     126.513    0.264606      20.447    0.705186     87.3852     47.0253     2.33275     94.5142     76.3119     32.9633     50.4874       99.39     41.2543     5.35645      21.497     341.276       53.66     57.4958     362.491     3.31155     17.4814     39.2792     117.434     33.0097      44.866     90.6385     75.9144     1.80526     24.9329     51.3066     15.6287     18.8961    0.746938     115.898     107.017     40.3693     5.00264     55.5785     5.39504     18.2836     151.951     18.5635     9.42002      31.358     96.1167      9.7469      200.22       21.87     21.8705     200.229     9.74754     96.1349     31.3556     9.42153     18.5619     151.943     18.2809     5.39847     55.5763     5.00005     40.3633     107.024     115.904    0.745171     18.8919      15.634     51.3054     24.9318     1.80681     75.8987     90.6369     44.8747     33.0139     117.395     39.2726     17.4698     3.30826     362.314     57.4233     53.7016     341.258     21.5833     5.36456     41.2028     99.3696     50.3924     32.9821     76.2856     94.5243      2.3224     47.0493     87.3478    0.701983     20.4642    0.263877     126.499     149.638     76.7011
    20.8126    0.026308     25.2621     57.8856     27.1669      6.2138     22.2095     26.3105     13.7302     33.4383     8.71769     14.1562     8.22015     27.3528     1.69553     6.20422     14.0597     163.437    0.928003     6.04428     57.4665     16.2852     10.0755    0.397921     23.6646     1.37474     11.4001     3.58456     56.9403     2.19268     27.4398     21.8375     4.51897     111.119     70.2339     51.3554     0.65805     19.2496      27.536     47.2516     28.5336      129.41     57.4953     29.6489     58.6339      15.516     14.8728     68.0802     14.7439     5.47862     5.47908     14.7401     68.0766     14.8735     15.5116     58.6367     29.6482     57.5132     129.409     28.5352     47.2474     27.5481     19.2452    0.655471     51.3571     70.2632     111.095      4.5264     21.8326      27.425     2.19212     56.9676     3.58354      11.402     1.37127     23.6803    0.398784     10.0747     16.2751     57.4234     6.02009    0.923322     163.377     14.0502     6.19524     1.69927     27.3481     8.19872     14.1451      8.7076     33.4317     13.7028     26.3308     22.2093     6.21111      27.149     57.8964     25.2563   0.0262747     20.7991
    10.6505     26.2659     81.1241     53.0767     35.1204     1.94337     84.6033     35.7892     7.12499     30.7148     7.99589      11.627     72.5257     35.5179     11.7374     17.8303     0.94266     148.735     26.3776    0.928804     53.6906    0.420546     14.9139     14.5246     34.0807     46.2128     10.5827    0.154152     59.0826   0.0109449     21.3866     80.2536    0.427454     115.401     70.2802     119.114       21.53     14.8723     66.2135     11.8919     14.3642     70.4818     25.8519     85.1722     40.3329     3.01301     12.2365     102.016   0.0533568     10.0305      10.031   0.0532759     102.015     12.2379     3.01341     40.3426     85.1734     25.8542     70.4816     14.3678     11.8905     66.2291     14.8629     21.5333     119.146     70.2822     115.428    0.430282     80.2597     21.3913   0.0111824     59.0751    0.153984     10.5761     46.2112     34.0943       14.54     14.9235    0.423306     53.7016    0.923322     26.4026     148.733    0.947786     17.8248     11.7358     35.5381     72.5508     11.6452     8.01211     30.7174     7.11836     35.8433     84.5816     1.94175     35.1458     53.0813      81.047     26.2809     10.6531
    228.664     223.918     46.5198    0.772641     68.6359      1.9079     107.131     26.0226    0.805261     77.0937     34.5747     28.8052      9.7607     79.9757     16.2458      18.793     25.0564     286.975     148.702     163.379     341.223     7.74305      5.1854     21.0287     108.233     15.7896     36.8876     34.6301     53.8898   0.0135357     12.5529     58.0837     7.36968     85.8938     1.39201     45.5098     179.228     160.803     23.7484     88.3402     16.4252     47.4852     122.893     29.9366     3.32446     20.4206     90.1426    0.315596     365.576     47.7775     47.7786     365.573    0.315786     90.1441     20.4193     3.32754     29.9376      122.86     47.4926     16.4368     88.3591      23.746     160.778     179.207     45.4792     1.38877     85.9161     7.37007     58.0753     12.5437   0.0134047     53.9018     34.6608     36.8787     15.7761     108.279     21.0221     5.19254     7.74275      341.26     163.377     148.734     286.694     25.0261     18.8108     16.1921     79.9644      9.7384     28.7827     34.5526     77.1204    0.808064     26.0037     107.079     1.89723     68.6192    0.776842     46.4993     223.933      228.68
    351.651     96.4024     19.0192     335.645     271.132     1.76464     23.5874     16.9686     45.7109     83.3495     117.359     12.7717     126.813     13.6216     5.32574     7.64495    0.819988     25.0409    0.946124     13.9928     21.5718     1.93951     1.13487       0.143     13.1242     141.356     58.6694     146.828     149.645     5.43391     12.0732     23.7742     2.17188     387.788     147.468     12.8749      111.28     273.059     129.574     28.3827     32.8477     104.328     7.15022     33.9498     8.82346     80.7081     11.5526     84.3741     34.6029      154.01     154.009     34.6019     84.3786      11.559     80.7054     8.82063      33.946     7.14851      104.34     32.8478     28.3793     129.632     273.083     111.296     12.8828     147.452     387.714     2.16848     23.7723     12.0747     5.42902     149.663     146.856     58.6161     141.334     13.1118    0.147472     1.13228     1.94186     21.5834     14.0502    0.947787      25.026    0.798444     7.63517     5.32174     13.6265     127.016     12.7625     117.397     83.3589      45.696     16.9687     23.5937     1.77159     271.116     335.663     18.9781     96.4123     351.665
    749.078     87.8932     77.7782     128.401     12.1398     10.9046  0.00183005     114.621     9.86539     15.6125     121.539     282.035     331.171      62.154     145.703     16.1959      7.6259     18.8106     17.8131     6.20314     5.36409     17.7643     1.39724     154.668     13.9624     398.242     183.793     317.455    0.333906      57.056     156.812     6.96302     5.75244      50.248     167.063    0.969218     20.6325     780.084     339.686     3.47271     245.278     47.8105      144.68     1.29013     24.7238     134.718     16.8763     30.5031     435.995     205.824     205.824     435.997     30.5033     16.8907     134.734     24.7388     1.28942     144.686     47.8069     245.323      3.4738      339.55     780.043     20.6196    0.968769      167.08     50.2647     5.75913     6.97443      156.83     57.0625    0.331076     317.407     183.809     398.293     13.9618     154.687     1.39622      17.781     5.36456     6.19523     17.8247     18.8107     7.63517      16.228      145.74     62.1226     331.192     281.994     121.497     15.6274      9.8666     114.581  0.00226008     10.9013     12.1228     128.382     77.8027     87.8748     749.178
    2619.23     17.6219     581.274     80.5289  0.00402966     64.7864     100.503     16.5084     115.419       91.89     706.778     423.485     1610.02     1068.35    0.135918     145.752      5.3249     16.2115     11.7343     1.69279     41.2068    0.300823     55.9743      112.39     1117.34      1640.6      146.65     552.251     129.874     116.763     58.9112     40.4054     106.814     11.2818     9.58255     380.846     11.4311     2428.17     586.807     35.6186     12.7956     168.704     20.5704     65.9441     268.704     13.9794     166.616     31.9936     205.187     2.74237     2.74247      205.19      31.994     166.574     13.9793     268.809     65.9471     20.5714     168.694     12.7861     35.6319     586.804     2428.22     11.4549     380.797     9.58015     11.2681     106.789     40.4146     58.9277     116.809     129.854     552.176     146.594     1640.71      1117.4     112.444     55.9475    0.305668     41.2029     1.69928     11.7358      16.192     5.32173      145.74    0.135865     1068.31     1610.12      423.53     706.692      91.905     115.369     16.5173     100.471     64.7589  0.00369224     80.5483     581.284     17.6269     2619.18
    23492.8     2601.85     669.112     70.7051     29.8433     2.59916     43.0073     1.52795     41.1487     59.5406     5.16697      2749.6     3765.98     4979.82     1068.46     62.0805     13.6299     79.9756      35.513     27.3856     99.4049     48.8281     3.16746     1174.23     8546.02     1027.01     2113.66     47.9794     27.1771     65.9381     2.83733     21.7742    0.276419     4.42852     17.5564     735.354      770.65     25205.1     790.805     39.7321     118.124     3.24012      17.284     1.20088     2.28845     3.42274     39.9081     352.555     11.5148     8557.75     8557.75     11.5178     352.562     39.8881     3.42355     2.29008     1.20103     17.2824     3.24468     118.078     39.7465     790.578       25206     770.435     735.449     17.5543     4.41705    0.277343      21.786     2.83833     65.9468     27.1782     48.0237     2113.72     1026.75     8545.26     1174.22     3.16432     48.8442     99.3697     27.3482     35.5381     79.9644     13.6266     62.1225     1068.31     4980.18     3765.22     2749.68     5.18056     59.5397     41.1435     1.53022     43.0237     2.60261     29.8252      70.684     668.909     2601.85     23493.6
     155765     308.664     859.147     217.828     623.732     159.834     123.602     34.3867     113.635     1.43225     4.90749     2021.72     305.424     3765.05     1610.02     331.359      126.78     9.74921      72.581      8.2047     50.3993     34.3212     170.633     1399.56     13907.5     20912.4     3515.95     272.339     47.5705     7.80265     1.34341     36.9276     42.6588     551.249     264.207     1321.73     2788.49      104402     7189.76     105.003     115.435     19.8695     54.9082     112.333      74.806     464.937     409.172     603.816     249.681     36763.2     36763.2      249.68     603.816     409.236      464.93     74.7853     112.344     54.8894     19.8719     115.412     104.998     7190.96      104397     2788.86      1321.8     264.216     551.298      42.662     36.8747     1.34416     7.80286     47.5574     272.279     3516.01     20915.6     13907.6     1399.64     170.647     34.3008     50.3922     8.19887     72.5509     9.73831     127.016     331.192     1610.12      3765.2     306.504     2021.22     4.92077     1.43463     113.662     34.3495     123.577     159.782     623.592     217.995     859.155     308.594      155764
    91.3391     2140.91     715.692      129.56     27.3236     56.4141     13.3679     10.3031     197.689     30.6927      185.45     1196.05     2021.33     2749.45     423.542     282.155     12.7706     28.7229     11.6416      14.151     32.9785   0.0342599     460.128     817.481     2614.05     2522.09     1790.86     53.3949     0.05753     147.261     7.59449     10.8797     36.8111     1.81193     193.221     489.828     1281.46     48.0617     1290.01     14.3115     8.81253     227.447   0.0450811     6.77089     49.8037     4.29516     226.374     176.139     1100.18         773         773     1100.17     176.143     226.357      4.2972     49.8168     6.77143   0.0451065     227.433      8.8039     14.3098     1289.83     48.0319     1281.09      489.76     193.178     1.80728     36.8395     10.8823     7.59692     147.229   0.0570184      53.397     1790.93     2522.08     2614.28     817.611     460.068   0.0340515     32.9821      14.145     11.6452     28.7826     12.7625     281.993     423.529     2749.69     2021.23     1195.92     185.482     30.6934      197.67     10.3073     13.3613     56.4475     27.3327     129.592     715.654     2141.11     91.3374
    1.09869     145.879     439.971     70.9654      84.615     7.18428     1.27074     11.8951      136.64     120.527     961.365     185.516     4.92169     5.18689      707.06     121.485      117.43      34.589     8.01267     8.72896     76.3031      116.13      33.164     753.392     42.5487     24.3961     155.123     952.791     121.714     71.6703     8.75019     4.58356      8.6577     52.8308     55.7816     325.617     24.2134     1.47888     784.825     269.924     48.1413     7.73054     1.25225     19.8006     6.69998     1.88997     2.07348     201.256     541.667     459.059      459.06     541.662      201.26     2.07385     1.88874     6.70782     19.8026     1.25343      7.7267     48.1357     269.945     784.899     1.48084      24.197     325.542     55.7969     52.8196     8.65234     4.58569     8.74488     71.6583     121.705     952.879     155.124      24.404      42.544     753.371      33.148     116.173     76.2854     8.70757     8.01211     34.5525     117.397     121.497     706.692     5.18054     4.92074     185.481     961.164     120.565     136.639     11.8941     1.27234     7.16737     84.6472     70.9763     439.947     145.892     1.09414
    27.5949     297.063     11.4188     262.493     30.9905     106.803   0.0110658     32.6986     112.655     96.3725      120.52     30.6699     1.44447     59.5405     91.9052     15.6382      83.372     77.0933     30.7174     33.4496     94.5672     37.9945     38.5299     53.7536     134.726      2.8936     12.5892     99.1593     30.7336     53.4405     32.6217     4.76282      56.667      14.897     370.692     11.1988     390.631     44.3864     41.8807     36.1624     187.085     16.1574     1.45558     37.9264    0.249907    0.283868     27.6573     127.698     387.198     6.01273     6.01276      387.21     127.699     27.6522    0.284149    0.248121      37.931     1.45544     16.1589     187.088     36.1701     41.9308     44.3845       390.6     11.2026     370.692     14.8972     56.6869     4.75932     32.6173     53.4451     30.7535     99.1636     12.6017     2.90317     134.694     53.6862     38.5387     37.9913     94.5244     33.4317     30.7174     77.1204     83.3585     15.6271     91.9049     59.5396     1.43459     30.6935     120.564     96.3503     112.676     32.6818   0.0102052     106.808     31.0059     262.516     11.4252     297.135     27.5937
    24.2042     10.0082       66.88     17.6321     6.16903     80.0877     160.465      13.583     6.77245     112.655     136.592     197.815      113.54      41.149     115.377     9.84246     45.7636    0.805267     7.12818     13.7218     2.31897     65.6262     2.91876     111.541     63.3501     89.5122     219.394     128.081     72.3733      41.648     3.91229     120.149     121.267     2.17712     4.77859     66.0164     10.4436     45.8969     32.5954     112.548     80.4174     23.1703     46.7621     62.6925     83.4508     7.17318     141.021     2.92973     121.684     12.5781     12.5789     121.672     2.92974     141.075     7.17066     83.4085     62.6968     46.7543     23.1749     80.4581     112.559     32.6095     45.9169     10.4325     65.9886     4.77651      2.1813     121.237     120.153     3.90986     41.6714     72.3569     128.109       219.4     89.4864     63.3889     111.566     2.92427     65.6039     2.32241     13.7028     7.11835    0.808067      45.696      9.8666     115.368     41.1434     113.662     197.671     136.639     112.676     6.78301     13.5976     160.454     80.0984     6.17182     17.6195     66.8624     10.0039     24.1926
    229.246     61.2967     53.7501     41.6999     1.22106     402.036     1.89951     234.379     13.5783     32.6652     11.8874     10.3011      34.351      1.5292     16.5376     114.552      16.953     25.9889     35.8228     26.3275     47.0236      6.2155     98.9683     16.7411     5.24855     65.5697     21.9383     12.2339     30.9877     15.9601     224.873     6.90931     311.677 6.91363e-05     72.6634     51.2567     86.4809      194.79      13.559      25.351     4.09578    0.349863     62.2292     61.9694     27.9648     91.5444     28.2239     70.0336     194.976     0.26006    0.260084     194.982     70.0321       28.21     91.5414     27.9618     61.9732     62.2309    0.348017     4.09268     25.3387     13.5935       194.8     86.4846     51.2407     72.6713 6.85127e-05     311.661     6.91053     224.917     15.9416     30.9897     12.2348      21.937     65.5635     5.24711     16.7262     98.9784     6.21383     47.0493     26.3308     35.8433     26.0036     16.9687     114.581     16.5173     1.53021     34.3496     10.3073     11.8942     32.6818     13.5975     234.382     1.90245     402.033     1.21983     41.7279     53.7518     61.3081     229.234
    230.948     11.0588     145.894    0.869233     188.686     52.1841       296.4     1.90142     160.419   0.0102351     1.27147     13.3805     123.594     43.0187     100.482  0.00175761     23.5959     107.079     84.5883      22.211     87.3373     26.7848     11.1221     102.607     59.5403     98.6248     7.58389     12.3806     42.0621     152.048     2.37213     269.225     89.1433     222.446     3.21613     148.985     20.8692     191.568     97.6879    0.796271     5.57602     28.7334     9.81009      185.84     25.1094     133.187     46.2571     7.66083     16.3818     22.8992     22.8989     16.3817     7.66095     46.2273     133.183     25.0998     185.846     9.80631     28.7412     5.58248    0.799637     97.6675     191.579     20.8731     148.988     3.21576     222.412     89.1319      269.25     2.36804     152.078     42.0765      12.393     7.58461     98.6328     59.5401     102.609      11.113     26.7909     87.3479     22.2094     84.5817     107.079     23.5938  0.00226014     100.471     43.0236     123.578     13.3614     1.27234   0.0102059     160.454     1.90244     296.277     52.1681      188.65    0.870407     145.873     11.0565     230.915
    208.826      131.67      40.459     37.4348   0.0123725     78.7607      52.148     402.029      80.088     106.803     7.17567     56.4407     159.887     2.59919     64.7589     10.9002     1.75615      1.9079     1.94138     6.21118    0.707353      16.532     5.91838     54.7384    0.617268     177.152     58.8299     14.1481     98.4075     77.9487     549.146     32.8261     22.7298     1.19835     34.8841     29.3403     158.345     241.537    0.330024     111.397    0.232533     9.88583   0.0982946     2.71507       351.6     71.7621     57.7779   0.0320515     301.708     100.264     100.264     301.699   0.0320873     57.7441     71.7579     351.642     2.71474   0.0985019     9.88475    0.231954     111.413    0.329142     241.538     158.359     29.3482     34.8822     1.19727     22.7342     32.8414     549.099     77.9747     98.3898     14.1567     58.8622     177.174    0.620727     54.7507     5.93157     16.5588    0.701977     6.21108     1.94177     1.89721     1.77158     10.9013     64.7591     2.60261     159.782      56.447     7.16734     106.807     80.0983     402.034     52.1681     78.6802   0.0123007     37.3961     40.4626     131.677     208.747
    134.839     74.5605     11.5091     7.00535      189.34   0.0123734     188.711     1.21584     6.16903     30.9904     84.6964     27.3677     623.729     29.8436   0.0039264     12.1379     271.121     68.6361     35.1424     27.1608     20.4776     346.653     2.77562   0.0499084      17.382     601.939     32.8042     174.837     7.15553     13.2828     13.6084     140.051     7.31395     122.093     7.65534     13.9578     140.226     187.509     12.1038     6.73729     11.0424     8.22053     84.6884     27.0338     51.1899      15.781     142.342     67.2359     45.4521     58.7454     58.7438      45.455     67.2344     142.335     15.7772     51.1693     27.0381     84.6903     8.21976     11.0346     6.73418     12.1196      187.48     140.237     13.9509     7.65553     122.097      7.3057     140.025     13.6096     13.2743     7.14894       174.8     32.8134     601.854     17.3658   0.0492974     2.77681     346.621     20.4641     27.1489     35.1458     68.6194     271.118     12.1228  0.00369285     29.8251     623.593     27.3326     84.6467      31.006     6.17181     1.21983      188.65   0.0123012     189.281     7.00505     11.4957     74.5808       134.8
    664.689      141.28     28.5763     79.9707     7.00561     37.3938     0.86987     41.7414     17.6156     262.604      70.979     129.596     217.974      70.692     80.5056      128.47     335.638    0.777828      53.063      57.878     0.26746     177.626     225.151     24.4915     50.7275     194.122     93.7367      100.46     185.943     19.5105     50.2453      21.165     12.8046  0.00121273     97.8804     17.5495     91.1948     692.424     263.144     3.42012     7.96265     117.046  0.00807762      29.654    0.284216    0.996225    0.948168     350.684      238.32     157.587     157.591     238.323     350.691    0.945868     0.99575    0.282852     29.6523  0.00797666     117.059     7.95999     3.41919     263.128     692.408     91.1767     17.5437     97.8567   0.0013508     12.7972     21.1709     50.2572     19.5021     185.911     100.442     93.7604      194.11     50.6928     24.4744      225.19     177.622     0.26388     57.8965     53.0814    0.776837     335.661     128.382     80.5482      70.684     217.995     129.592     70.9762     262.516     17.6194      41.728    0.870396      37.396     7.00505     80.0798     28.5869     141.333     664.649
    1223.81     165.563     527.398     28.5402     11.4937     40.4471     145.829     53.7333     66.8471     11.4335     439.909     715.686      859.14     668.744     581.197     77.7253     18.9593     46.5016     81.0582     25.2905     126.543     1.40082     1.90681     378.311     637.644      744.45     603.273     354.865     82.5552     19.1612     131.196     44.5577     90.5987     19.7638     123.915     561.964     288.249     1189.73     339.695     796.211     368.043      13.586     25.7725     109.365     216.487     14.1115     61.3964     183.247     317.507     79.9716     79.9747     317.517     183.251     61.4078     14.1134     216.526     109.369     25.7926     13.5689     368.072     796.205     339.735     1189.69     288.334     562.033     123.854     19.7582     90.6234     44.5781     131.173     19.1827     82.6077     354.786     603.378     744.421     637.864     378.275     1.90386     1.41018     126.499     25.2563     81.0465     46.4993     18.9782     77.8022     581.283     668.911     859.155     715.655     439.949     11.4253     66.8624     53.7518     145.873     40.4625     11.4956     28.5871     527.403     165.541     1223.88
    5187.63      2575.3     165.588     141.429     74.5602      131.67     11.0588     61.2741     10.0082      297.06     145.928     2141.43     308.764     2601.85      17.609      87.862     96.4274     223.917     26.2592   0.0256189     149.689     199.425    0.174923     85.8354     1676.37     42.2593     2710.43     393.769     222.324     76.4153     2.65524    0.143929      168.68     150.689     21.2945     385.497     1418.18     5557.45     720.883     666.634     165.771     31.3324     22.5501     42.3077     43.2862     34.9095    0.984275     543.408     1119.07     3696.68     3696.66     1119.06     543.402    0.977766     34.9156     43.2808      42.305     22.5557     31.3244     165.721     666.694     721.071     5557.21     1417.88     385.473     21.2837     150.699     168.662    0.142329      2.6523     76.3976     222.351     393.833     2710.52     42.2434     1676.55     85.8854    0.174426     199.428     149.638   0.0262767      26.281     223.933     96.4121     87.8746     17.6268     2601.85     308.594     2141.11     145.891     297.134     10.0038     61.3083     11.0565     131.677     74.5809     141.333     165.542     2575.21     5187.79
     174001      5187.6     1223.95     664.513     134.839     208.827     230.698     229.168     24.2046     27.5954     1.09492     91.5661      155751     23492.8     2619.29     749.156     351.725     228.663     10.6326     20.9417     76.7325     87.6396     270.415     1635.39     19645.8      249671     1853.03     258.365     53.4234     21.5918      67.832     89.8534     128.889     71.4073     574.097     1415.92     8014.09     8328.54     9.92246     143.785     18.9534     170.581     359.961     234.454     294.811     197.839     255.594     555.011     2101.42     14317.8     14317.7      2101.4     555.013     255.609     197.845     294.889     234.467     359.924      170.59     18.9378     143.657     9.98202     8339.37     8014.24     1415.59      574.16     71.4225     128.914     89.8652     67.8206     21.5746     53.4043     258.462     1852.99      249676     19646.1      1634.9     270.447     87.5786     76.7017     20.7992     10.6534     228.679     351.667     749.179     2619.19     23493.5      155763     91.3376     1.09418      27.594     24.1929     229.235     230.916     208.749     134.799     664.648     1223.88     5187.79      174003
